27.0
33.0
35.0
33.0
35.0
33.0
19.0
11.0
7.0
19.0
71.0
145.0
207.0
259.0
283.0
263.0
243.0
226.0
207.0
171.0
128.0
59.0
0.0
0.0
0.0
0.0
0.0
0.0
0.0
11.0
23.0
27.0
35.0
33.0
39.0
35.0
32.0
23.0
17.0
15.0
15.0
39.0
123.0
195.0
255.0
295.0
291.0
271.0
247.0
225.0
195.0
155.0
87.0
23.0
0.0
0.0
0.0
0.0
0.0
0.0
6.0
23.0
23.0
33.0
39.0
39.0
37.0
38.0
32.0
23.0
17.0
17.0
32.0
97.0
171.0
227.0
279.0
289.0
267.0
243.0
227.0
205.0
167.0
115.0
51.0
0.0
0.0
0.0
0.0
0.0
0.0
0.0
11.0
17.0
27.0
32.0
35.0
35.0
39.0
35.0
23.0
15.0
7.0
19.0
65.0
135.0
205.0
255.0
295.0
279.0
259.0
227.0
199.0
173.0
129.0
57.0
0.0
0.0
0.0
0.0
0.0
0.0
0.0
7.0
23.0
27.0
33.0
39.0
35.0
39.0
35.0
23.0
19.0
13.0
15.0
33.0
113.0
183.0
245.0
295.0
289.0
267.0
239.0
223.0
195.0
160.0
99.0
33.0
0.0
0.0
0.0
0.0
0.0
0.0
1.0
22.0
19.0
32.0
32.0
35.0
35.0
35.0
27.0
23.0
23.0
11.0
23.0
87.0
162.0
219.0
273.0
289.0
267.0
239.0
227.0
207.0
171.0
119.0
64.0
0.0
0.0
0.0
0.0
0.0
0.0
0.0
11.0
19.0
21.0
35.0
35.0
35.0
35.0
31.0
23.0
19.0
11.0
17.0
64.0
131.0
199.0
255.0
289.0
279.0
255.0
241.0
227.0
193.0
147.0
87.0
19.0
0.0
0.0
0.0
0.0
0.0
0.0
7.0
19.0
23.0
35.0
32.0
35.0
35.0
34.0
31.0
19.0
11.0
15.0
32.0
107.0
183.0
239.0
291.0
291.0
267.0
247.0
225.0
195.0
163.0
103.0
39.0
0.0
0.0
0.0
0.0
0.0
0.0
5.0
17.0
19.0
23.0
35.0
35.0
39.0
35.0
32.0
21.0
15.0
11.0
23.0
79.0
155.0
215.0
267.0
288.0
267.0
239.0
226.0
205.0
171.0
121.0
64.0
1.0
0.0
0.0
0.0
0.0
0.0
0.0
15.0
19.0
19.0
35.0
35.0
35.0
33.0
33.0
23.0
17.0
11.0
17.0
51.0
128.0
192.0
247.0
285.0
279.0
255.0
247.0
225.0
193.0
151.0
83.0
23.0
0.0
0.0
0.0
0.0
0.0
0.0
3.0
11.0
11.0
21.0
23.0
29.0
27.0
27.0
17.0
15.0
15.0
15.0
35.0
115.0
183.0
247.0
295.0
299.0
279.0
251.0
235.0
211.0
171.0
119.0
53.0
0.0
0.0
0.0
0.0
0.0
0.0
0.0
7.0
7.0
11.0
19.0
21.0
23.0
23.0
23.0
19.0
15.0
13.0
31.0
81.0
167.0
223.0
275.0
299.0
275.0
251.0
241.0
215.0
183.0
135.0
66.0
0.0
0.0
0.0
0.0
0.0
0.0
0.0
3.0
11.0
11.0
23.0
19.0
19.0
23.0
21.0
15.0
11.0
11.0
19.0
47.0
135.0
193.0
255.0
295.0
289.0
267.0
241.0
219.0
193.0
151.0
87.0
23.0
0.0
0.0
0.0
0.0
0.0
0.0
3.0
11.0
11.0
23.0
23.0
23.0
23.0
23.0
17.0
15.0
11.0
7.0
32.0
101.0
177.0
235.0
288.0
295.0
275.0
251.0
231.0
211.0
171.0
123.0
55.0
0.0
0.0
0.0
0.0
0.0
0.0
0.0
15.0
15.0
15.0
23.0
23.0
27.0
23.0
23.0
15.0
15.0
11.0
23.0
71.0
149.0
219.0
271.0
288.0
279.0
247.0
235.0
215.0
183.0
143.0
67.0
3.0
0.0
0.0
0.0
0.0
0.0
0.0
3.0
15.0
15.0
17.0
23.0
27.0
25.0
21.0
17.0
15.0
15.0
19.0
39.0
119.0
207.0
259.0
289.0
288.0
263.0
239.0
221.0
195.0
151.0
97.0
31.0
0.0
0.0
0.0
0.0
0.0
0.0
3.0
11.0
13.0
19.0
21.0
23.0
23.0
23.0
17.0
15.0
15.0
15.0
31.0
95.0
167.0
235.0
291.0
303.0
279.0
259.0
223.0
203.0
163.0
113.0
55.0
0.0
0.0
0.0
0.0
0.0
0.0
0.0
7.0
7.0
15.0
23.0
19.0
23.0
23.0
19.0
17.0
11.0
7.0
19.0
55.0
135.0
199.0
257.0
283.0
271.0
247.0
235.0
215.0
187.0
143.0
75.0
7.0
0.0
0.0
0.0
0.0
0.0
0.0
3.0
11.0
11.0
19.0
23.0
23.0
23.0
19.0
17.0
11.0
11.0
15.0
35.0
111.0
192.0
247.0
295.0
295.0
279.0
251.0
235.0
211.0
175.0
119.0
51.0
0.0
0.0
0.0
0.0
0.0
0.0
1.0
7.0
7.0
15.0
19.0
19.0
19.0
23.0
19.0
13.0
11.0
11.0
27.0
79.0
160.0
224.0
278.0
291.0
279.0
255.0
235.0
223.0
183.0
135.0
65.0
3.0
0.0
0.0
0.0
0.0
0.0
0.0
3.0
17.0
15.0
19.0
27.0
23.0
23.0
23.0
17.0
11.0
11.0
17.0
49.0
131.0
194.0
247.0
295.0
289.0
271.0
235.0
215.0
195.0
147.0
87.0
19.0
0.0
0.0
0.0
0.0
0.0
0.0
2.0
11.0
11.0
23.0
19.0
27.0
23.0
23.0
19.0
15.0
11.0
15.0
32.0
103.0
183.0
239.0
291.0
295.0
275.0
251.0
231.0
215.0
171.0
119.0
55.0
0.0
0.0
0.0
0.0
0.0
0.0
0.0
3.0
7.0
23.0
23.0
23.0
23.0
23.0
17.0
11.0
11.0
11.0
23.0
67.0
151.0
211.0
263.0
291.0
275.0
247.0
231.0
215.0
183.0
135.0
71.0
3.0
0.0
0.0
0.0
0.0
0.0
0.0
3.0
11.0
11.0
27.0
23.0
31.0
23.0
23.0
19.0
11.0
15.0
23.0
39.0
123.0
199.0
259.0
289.0
279.0
263.0
231.0
211.0
195.0
149.0
91.0
31.0
0.0
0.0
0.0
0.0
0.0
0.0
3.0
11.0
15.0
17.0
18.0
23.0
23.0
23.0
19.0
15.0
15.0
11.0
32.0
87.0
167.0
231.0
283.0
299.0
279.0
251.0
231.0
211.0
179.0
129.0
49.0
0.0
0.0
0.0
0.0
0.0
0.0
0.0
7.0
7.0
19.0
17.0
23.0
23.0
23.0
23.0
15.0
15.0
15.0
23.0
67.0
143.0
207.0
259.0
291.0
279.0
257.0
227.0
207.0
175.0
135.0
71.0
1.0
0.0
0.0
0.0
0.0
0.0
0.0
3.0
15.0
17.0
19.0
23.0
21.0
27.0
23.0
17.0
15.0
11.0
15.0
33.0
117.0
192.0
247.0
295.0
299.0
287.0
257.0
224.0
199.0
157.0
99.0
35.0
0.0
0.0
0.0
0.0
0.0
0.0
1.0
11.0
15.0
19.0
23.0
23.0
23.0
19.0
19.0
11.0
13.0
11.0
27.0
85.0
160.0
227.0
283.0
295.0
275.0
256.0
224.0
201.0
163.0
115.0
55.0
0.0
0.0
0.0
0.0
0.0
0.0
0.0
5.0
15.0
17.0
19.0
23.0
23.0
23.0
19.0
15.0
11.0
15.0
19.0
51.0
131.0
195.0
251.0
295.0
288.0
267.0
239.0
219.0
192.0
151.0
87.0
19.0
0.0
0.0
0.0
0.0
0.0
0.0
0.0
11.0
11.0
19.0
19.0
23.0
23.0
23.0
17.0
11.0
15.0
15.0
35.0
103.0
181.0
243.0
289.0
303.0
279.0
251.0
231.0
215.0
171.0
119.0
53.0
0.0
0.0
0.0
0.0
0.0
0.0
1.0
7.0
11.0
11.0
19.0
19.0
23.0
23.0
19.0
17.0
15.0
15.0
27.0
75.0
151.0
215.0
271.0
289.0
275.0
251.0
231.0
215.0
183.0
143.0
71.0
0.0
0.0
0.0
0.0
0.0
0.0
0.0
7.0
17.0
15.0
23.0
19.0
23.0
23.0
23.0
17.0
13.0
7.0
11.0
35.0
115.0
195.0
247.0
295.0
295.0
275.0
243.0
227.0
203.0
161.0
99.0
35.0
0.0
0.0
0.0
0.0
0.0
0.0
3.0
7.0
11.0
19.0
17.0
23.0
23.0
23.0
21.0
15.0
11.0
11.0
29.0
87.0
171.0
231.0
279.0
295.0
279.0
247.0
231.0
215.0
177.0
129.0
55.0
0.0
0.0
0.0
0.0
0.0
0.0
0.0
3.0
15.0
23.0
19.0
19.0
23.0
23.0
23.0
18.0
15.0
7.0
21.0
64.0
139.0
203.0
259.0
279.0
275.0
251.0
235.0
215.0
192.0
143.0
81.0
11.0
0.0
0.0
0.0
0.0
0.0
0.0
3.0
13.0
13.0
17.0
19.0
21.0
23.0
23.0
17.0
11.0
15.0
15.0
35.0
107.0
183.0
243.0
293.0
295.0
279.0
247.0
231.0
207.0
163.0
111.0
43.0
0.0
0.0
0.0
0.0
0.0
0.0
2.0
7.0
7.0
17.0
23.0
23.0
23.0
23.0
19.0
11.0
11.0
13.0
23.0
81.0
160.0
224.0
275.0
295.0
273.0
251.0
235.0
215.0
179.0
135.0
65.0
0.0
0.0
0.0
0.0
0.0
0.0
0.0
3.0
11.0
19.0
19.0
23.0
23.0
27.0
23.0
15.0
17.0
14.0
19.0
51.0
131.0
195.0
247.0
295.0
289.0
263.0
237.0
215.0
193.0
145.0
87.0
17.0
0.0
0.0
0.0
0.0
0.0
0.0
3.0
11.0
11.0
23.0
23.0
23.0
23.0
23.0
19.0
15.0
15.0
15.0
33.0
103.0
179.0
239.0
289.0
299.0
275.0
247.0
231.0
211.0
167.0
119.0
55.0
0.0
0.0
0.0
0.0
0.0
0.0
0.0
7.0
11.0
15.0
19.0
23.0
23.0
23.0
19.0
15.0
15.0
11.0
23.0
71.0
145.0
215.0
263.0
288.0
273.0
247.0
231.0
215.0
183.0
135.0
65.0
5.0
0.0
0.0
0.0
0.0
0.0
0.0
3.0
11.0
11.0
23.0
23.0
23.0
23.0
19.0
13.0
11.0
11.0
15.0
39.0
123.0
195.0
255.0
299.0
295.0
279.0
247.0
224.0
207.0
163.0
99.0
39.0
0.0
0.0
0.0
0.0
0.0
0.0
3.0
11.0
11.0
23.0
17.0
23.0
23.0
19.0
17.0
11.0
11.0
11.0
29.0
96.0
167.0
227.0
279.0
295.0
275.0
247.0
231.0
215.0
177.0
123.0
65.0
1.0
0.0
0.0
0.0
0.0
0.0
0.0
7.0
15.0
23.0
23.0
23.0
23.0
23.0
19.0
15.0
15.0
15.0
23.0
65.0
139.0
203.0
259.0
279.0
271.0
251.0
235.0
223.0
183.0
143.0
75.0
13.0
0.0
0.0
0.0
0.0
0.0
0.0
7.0
13.0
15.0
17.0
23.0
27.0
19.0
19.0
15.0
11.0
11.0
15.0
33.0
111.0
183.0
247.0
289.0
295.0
275.0
247.0
227.0
207.0
163.0
111.0
39.0
0.0
0.0
0.0
0.0
0.0
0.0
0.0
7.0
11.0
19.0
23.0
21.0
27.0
23.0
15.0
15.0
15.0
11.0
25.0
81.0
155.0
223.0
273.0
295.0
271.0
251.0
231.0
215.0
179.0
135.0
64.0
0.0
0.0
0.0
0.0
0.0
0.0
0.0
7.0
11.0
19.0
19.0
21.0
23.0
23.0
19.0
15.0
19.0
11.0
19.0
51.0
129.0
195.0
251.0
291.0
289.0
263.0
233.0
213.0
187.0
145.0
85.0
15.0
0.0
0.0
0.0
0.0
0.0
0.0
1.0
15.0
15.0
19.0
23.0
19.0
23.0
23.0
11.0
7.0
11.0
7.0
31.0
97.0
171.0
231.0
275.0
295.0
271.0
243.0
227.0
207.0
167.0
119.0
55.0
0.0
0.0
0.0
0.0
0.0
0.0
0.0
15.0
19.0
23.0
31.0
39.0
35.0
36.0
32.0
19.0
15.0
15.0
23.0
65.0
135.0
199.0
247.0
283.0
278.0
255.0
235.0
223.0
187.0
145.0
71.0
11.0
0.0
0.0
0.0
0.0
0.0
0.0
3.0
23.0
23.0
33.0
35.0
35.0
39.0
35.0
23.0
19.0
15.0
15.0
35.0
113.0
192.0
243.0
290.0
291.0
263.0
239.0
227.0
195.0
160.0
99.0
33.0
0.0
0.0
0.0
0.0
0.0
0.0
3.0
19.0
23.0
27.0
34.0
35.0
35.0
39.0
33.0
23.0
19.0
15.0
27.0
83.0
161.0
215.0
263.0
279.0
259.0
239.0
219.0
199.0
163.0
119.0
55.0
0.0
0.0
0.0
0.0
0.0
0.0
0.0
7.0
23.0
23.0
35.0
35.0
39.0
39.0
32.0
23.0
19.0
15.0
15.0
64.0
133.0
193.0
243.0
279.0
279.0
257.0
227.0
203.0
175.0
135.0
67.0
3.0
0.0
0.0
0.0
0.0
0.0
0.0
3.0
19.0
19.0
30.0
35.0
39.0
35.0
33.0
23.0
17.0
11.0
11.0
23.0
103.0
179.0
231.0
279.0
288.0
263.0
239.0
219.0
199.0
163.0
102.0
35.0
0.0
0.0
0.0
0.0
0.0
0.0
1.0
11.0
19.0
31.0
32.0
33.0
35.0
39.0
30.0
19.0
11.0
11.0
23.0
79.0
151.0
207.0
263.0
279.0
257.0
239.0
225.0
203.0
165.0
119.0
64.0
3.0
0.0
0.0
0.0
0.0
0.0
0.0
15.0
23.0
23.0
35.0
35.0
35.0
33.0
33.0
23.0
19.0
7.0
15.0
47.0
128.0
183.0
239.0
279.0
275.0
259.0
227.0
207.0
183.0
139.0
75.0
11.0
0.0
0.0
0.0
0.0
0.0
0.0
3.0
17.0
17.0
33.0
33.0
32.0
39.0
34.0
23.0
19.0
11.0
11.0
27.0
99.0
171.0
231.0
275.0
289.0
263.0
241.0
223.0
199.0
167.0
111.0
47.0
0.0
0.0
0.0
0.0
0.0
0.0
1.0
11.0
23.0
23.0
32.0
32.0
35.0
35.0
27.0
21.0
17.0
9.0
21.0
67.0
143.0
199.0
251.0
291.0
277.0
251.0
241.0
224.0
183.0
147.0
79.0
7.0
0.0
0.0
0.0
0.0
0.0
0.0
11.0
23.0
19.0
32.0
35.0
35.0
33.0
33.0
23.0
15.0
7.0
11.0
35.0
113.0
183.0
239.0
279.0
279.0
263.0
231.0
211.0
192.0
151.0
87.0
27.0
0.0
0.0
0.0
0.0
0.0
0.0
3.0
15.0
23.0
33.0
33.0
35.0
33.0
35.0
23.0
19.0
15.0
11.0
23.0
83.0
163.0
215.0
263.0
279.0
263.0
235.0
219.0
203.0
163.0
115.0
55.0
0.0
0.0
0.0
0.0
0.0
0.0
0.0
17.0
23.0
27.0
33.0
35.0
35.0
32.0
27.0
23.0
17.0
9.0
19.0
55.0
135.0
195.0
247.0
288.0
278.0
257.0
227.0
205.0
175.0
135.0
67.0
3.0
0.0
0.0
0.0
0.0
0.0
0.0
7.0
19.0
19.0
32.0
33.0
35.0
39.0
35.0
23.0
19.0
11.0
11.0
27.0
103.0
179.0
235.0
279.0
289.0
267.0
239.0
224.0
199.0
159.0
103.0
43.0
0.0
0.0
0.0
0.0
0.0
0.0
0.0
11.0
19.0
23.0
35.0
39.0
39.0
39.0
33.0
19.0
7.0
11.0
23.0
79.0
151.0
205.0
262.0
279.0
263.0
239.0
224.0
207.0
163.0
129.0
51.0
0.0
0.0
0.0
0.0
0.0
0.0
0.0
11.0
19.0
19.0
33.0
33.0
32.0
35.0
32.0
23.0
15.0
11.0
15.0
51.0
123.0
195.0
251.0
293.0
289.0
263.0
231.0
215.0
183.0
143.0
81.0
19.0
0.0
0.0
0.0
0.0
0.0
0.0
7.0
23.0
23.0
23.0
32.0
33.0
35.0
35.0
27.0
19.0
15.0
7.0
23.0
96.0
167.0
231.0
267.0
287.0
259.0
231.0
219.0
195.0
160.0
103.0
43.0
0.0
0.0
0.0
0.0
0.0
0.0
0.0
11.0
19.0
23.0
35.0
35.0
35.0
35.0
32.0
19.0
19.0
11.0
19.0
71.0
139.0
199.0
247.0
289.0
273.0
255.0
239.0
215.0
183.0
143.0
71.0
7.0
0.0
0.0
0.0
0.0
0.0
0.0
7.0
19.0
27.0
33.0
33.0
35.0
39.0
35.0
21.0
19.0
15.0
17.0
39.0
115.0
192.0
245.0
290.0
288.0
263.0
235.0
219.0
193.0
147.0
95.0
27.0
0.0
0.0
0.0
0.0
0.0
0.0
3.0
13.0
19.0
33.0
33.0
35.0
33.0
33.0
23.0
17.0
15.0
11.0
23.0
87.0
161.0
211.0
267.0
279.0
263.0
239.0
215.0
195.0
163.0
113.0
55.0
0.0
0.0
0.0
0.0
0.0
0.0
3.0
7.0
17.0
23.0
33.0
32.0
35.0
35.0
33.0
19.0
15.0
15.0
19.0
64.0
135.0
195.0
247.0
288.0
275.0
257.0
227.0
207.0
177.0
135.0
69.0
3.0
0.0
0.0
0.0
0.0
0.0
0.0
5.0
19.0
23.0
32.0
33.0
39.0
35.0
32.0
23.0
19.0
15.0
15.0
29.0
109.0
179.0
231.0
279.0
288.0
263.0
239.0
219.0
195.0
155.0
99.0
35.0
0.0
0.0
0.0
0.0
0.0
0.0
0.0
15.0
23.0
31.0
33.0
37.0
35.0
35.0
23.0
23.0
11.0
9.0
23.0
79.0
151.0
215.0
263.0
279.0
259.0
239.0
225.0
203.0
167.0
123.0
64.0
0.0
0.0
0.0
0.0
0.0
0.0
0.0
11.0
23.0
23.0
35.0
35.0
39.0
39.0
32.0
23.0
17.0
15.0
17.0
51.0
131.0
183.0
243.0
279.0
273.0
251.0
241.0
225.0
192.0
151.0
87.0
23.0
0.0
0.0
0.0
0.0
0.0
0.0
3.0
15.0
23.0
32.0
35.0
35.0
35.0
35.0
31.0
27.0
11.0
11.0
27.0
103.0
175.0
231.0
279.0
283.0
263.0
239.0
219.0
195.0
163.0
107.0
43.0
0.0
0.0
0.0
0.0
0.0
0.0
0.0
15.0
23.0
33.0
39.0
37.0
39.0
37.0
23.0
19.0
17.0
11.0
19.0
71.0
143.0
199.0
251.0
288.0
271.0
253.0
231.0
211.0
183.0
131.0
65.0
0.0
0.0
0.0
0.0
0.0
0.0
0.0
7.0
17.0
23.0
32.0
35.0
39.0
35.0
33.0
23.0
19.0
15.0
15.0
43.0
123.0
195.0
245.0
291.0
285.0
261.0
235.0
213.0
192.0
147.0
87.0
23.0
0.0
0.0
0.0
0.0
0.0
0.0
3.0
15.0
19.0
31.0
33.0
35.0
39.0
35.0
23.0
21.0
15.0
11.0
29.0
91.0
167.0
225.0
271.0
288.0
263.0
239.0
223.0
199.0
163.0
111.0
55.0
0.0
0.0
0.0
0.0
0.0
0.0
2.0
15.0
19.0
27.0
33.0
35.0
35.0
35.0
34.0
23.0
15.0
15.0
23.0
67.0
139.0
199.0
247.0
291.0
273.0
255.0
235.0
219.0
187.0
139.0
79.0
15.0
0.0
0.0
0.0
0.0
0.0
0.0
7.0
19.0
23.0
32.0
35.0
39.0
35.0
35.0
27.0
19.0
7.0
15.0
34.0
111.0
183.0
235.0
279.0
288.0
259.0
235.0
215.0
193.0
151.0
96.0
35.0
0.0
0.0
0.0
0.0
0.0
0.0
3.0
15.0
23.0
27.0
32.0
35.0
39.0
35.0
23.0
19.0
15.0
11.0
27.0
85.0
160.0
207.0
263.0
279.0
263.0
231.0
217.0
199.0
161.0
113.0
51.0
0.0
0.0
0.0
0.0
0.0
0.0
0.0
11.0
19.0
23.0
32.0
35.0
33.0
37.0
27.0
23.0
19.0
11.0
19.0
55.0
131.0
192.0
243.0
279.0
271.0
251.0
231.0
219.0
192.0
147.0
81.0
22.0
0.0
0.0
0.0
0.0
0.0
0.0
3.0
23.0
19.0
33.0
35.0
39.0
35.0
33.0
27.0
23.0
15.0
15.0
31.0
107.0
175.0
233.0
275.0
287.0
259.0
235.0
215.0
195.0
155.0
99.0
35.0
0.0
0.0
0.0
0.0
0.0
0.0
0.0
11.0
17.0
27.0
32.0
33.0
35.0
35.0
27.0
23.0
15.0
11.0
23.0
75.0
147.0
207.0
251.0
291.0
275.0
251.0
231.0
213.0
179.0
135.0
65.0
1.0
0.0
0.0
0.0
0.0
0.0
0.0
11.0
27.0
23.0
27.0
35.0
33.0
33.0
31.0
23.0
19.0
15.0
19.0
43.0
119.0
195.0
247.0
288.0
279.0
259.0
235.0
211.0
183.0
143.0
87.0
23.0
0.0
0.0
0.0
0.0
0.0
0.0
7.0
17.0
19.0
32.0
32.0
35.0
39.0
33.0
19.0
23.0
11.0
11.0
27.0
97.0
165.0
219.0
267.0
275.0
259.0
231.0
215.0
195.0
159.0
107.0
45.0
0.0
0.0
0.0
0.0
0.0
0.0
3.0
7.0
19.0
27.0
32.0
35.0
39.0
35.0
32.0
27.0
15.0
11.0
19.0
65.0
139.0
195.0
243.0
283.0
271.0
247.0
235.0
215.0
183.0
139.0
71.0
7.0
0.0
0.0
0.0
0.0
0.0
0.0
7.0
19.0
21.0
32.0
32.0
39.0
39.0
33.0
23.0
15.0
11.0
13.0
35.0
111.0
182.0
235.0
277.0
279.0
259.0
235.0
211.0
187.0
151.0
95.0
33.0
0.0
0.0
0.0
0.0
0.0
0.0
0.0
13.0
21.0
23.0
32.0
33.0
35.0
33.0
23.0
21.0
11.0
11.0
21.0
81.0
151.0
211.0
255.0
289.0
271.0
243.0
231.0
208.0
169.0
119.0
64.0
1.0
0.0
0.0
0.0
0.0
0.0
0.0
15.0
23.0
23.0
31.0
33.0
35.0
35.0
32.0
19.0
17.0
15.0
19.0
55.0
131.0
187.0
235.0
275.0
267.0
243.0
231.0
215.0
179.0
143.0
79.0
11.0
0.0
0.0
0.0
0.0
0.0
0.0
5.0
19.0
23.0
31.0
35.0
35.0
39.0
35.0
23.0
19.0
17.0
17.0
23.0
103.0
175.0
227.0
267.0
279.0
255.0
247.0
229.0
203.0
163.0
111.0
49.0
0.0
0.0
0.0
0.0
0.0
0.0
0.0
15.0
19.0
31.0
34.0
35.0
35.0
32.0
31.0
21.0
17.0
11.0
19.0
71.0
147.0
199.0
259.0
271.0
247.0
247.0
231.0
214.0
175.0
131.0
64.0
1.0
0.0
0.0
0.0
0.0
0.0
0.0
11.0
23.0
19.0
31.0
32.0
35.0
38.0
32.0
23.0
15.0
15.0
19.0
47.0
123.0
193.0
243.0
283.0
275.0
259.0
227.0
211.0
183.0
135.0
75.0
17.0
0.0
0.0
0.0
0.0
0.0
0.0
3.0
18.0
23.0
27.0
31.0
35.0
33.0
35.0
27.0
19.0
15.0
11.0
23.0
99.0
167.0
217.0
270.0
275.0
257.0
227.0
215.0
195.0
153.0
103.0
39.0
0.0
0.0
0.0
0.0
0.0
0.0
0.0
7.0
23.0
29.0
33.0
35.0
35.0
39.0
35.0
23.0
19.0
15.0
23.0
71.0
145.0
195.0
247.0
283.0
271.0
241.0
227.0
207.0
183.0
135.0
67.0
7.0
0.0
0.0
0.0
0.0
0.0
0.0
7.0
19.0
23.0
32.0
32.0
33.0
33.0
33.0
23.0
19.0
15.0
17.0
39.0
115.0
183.0
235.0
279.0
275.0
251.0
237.0
227.0
197.0
161.0
102.0
39.0
0.0
0.0
0.0
0.0
0.0
0.0
3.0
23.0
23.0
33.0
33.0
39.0
35.0
32.0
31.0
19.0
15.0
11.0
23.0
87.0
159.0
211.0
259.0
271.0
247.0
241.0
227.0
207.0
167.0
119.0
64.0
1.0
0.0
0.0
0.0
0.0
0.0
0.0
11.0
19.0
27.0
34.0
35.0
35.0
35.0
32.0
23.0
22.0
13.0
19.0
64.0
135.0
192.0
239.0
275.0
263.0
243.0
231.0
209.0
179.0
139.0
71.0
7.0
0.0
0.0
0.0
0.0
0.0
0.0
7.0
22.0
23.0
27.0
33.0
33.0
39.0
35.0
31.0
19.0
15.0
15.0
35.0
103.0
179.0
231.0
271.0
273.0
257.0
225.0
211.0
183.0
147.0
96.0
38.0
0.0
0.0
0.0
0.0
0.0
0.0
0.0
15.0
19.0
27.0
33.0
33.0
33.0
33.0
23.0
17.0
15.0
11.0
19.0
79.0
147.0
199.0
247.0
279.0
263.0
239.0
225.0
207.0
167.0
123.0
64.0
7.0
0.0
0.0
0.0
0.0
0.0
0.0
11.0
0.0
0.0
0.0
0.0
0.0
11.0
23.0
23.0
35.0
35.0
35.0
35.0
33.0
27.0
19.0
17.0
23.0
55.0
129.0
171.0
224.0
255.0
259.0
239.0
227.0
211.0
183.0
139.0
83.0
19.0
0.0
0.0
0.0
0.0
0.0
0.0
3.0
19.0
19.0
25.0
32.0
35.0
39.0
33.0
31.0
23.0
19.0
23.0
33.0
107.0
171.0
211.0
259.0
257.0
239.0
224.0
207.0
183.0
147.0
97.0
39.0
0.0
0.0
0.0
0.0
0.0
0.0
1.0
7.0
19.0
23.0
27.0
35.0
33.0
34.0
33.0
19.0
19.0
13.0
23.0
75.0
139.0
195.0
245.0
267.0
247.0
241.0
225.0
211.0
171.0
128.0
65.0
1.0
0.0
0.0
0.0
0.0
0.0
0.0
11.0
17.0
23.0
32.0
35.0
35.0
35.0
35.0
33.0
19.0
23.0
23.0
55.0
128.0
179.0
235.0
263.0
255.0
243.0
231.0
215.0
183.0
143.0
71.0
11.0
0.0
0.0
0.0
0.0
0.0
0.0
3.0
23.0
22.0
33.0
39.0
35.0
39.0
35.0
35.0
35.0
33.0
33.0
65.0
151.0
193.0
239.0
269.0
263.0
235.0
231.0
215.0
193.0
135.0
65.0
0.0
0.0
0.0
0.0
0.0
0.0
0.0
0.0
13.0
17.0
34.0
35.0
32.0
37.0
39.0
33.0
32.0
33.0
27.0
49.0
128.0
175.0
215.0
247.0
271.0
257.0
225.0
215.0
193.0
155.0
95.0
15.0
0.0
0.0
0.0
0.0
0.0
0.0
0.0
11.0
25.0
27.0
32.0
23.0
19.0
33.0
31.0
49.0
67.0
83.0
119.0
241.0
403.0
385.0
387.0
369.0
352.0
327.0
299.0
263.0
195.0
67.0
0.0
0.0
0.0
0.0
0.0
0.0
0.0
0.0
13.0
17.0
19.0
33.0
35.0
43.0
39.0
43.0
47.0
71.0
79.0
99.0
187.0
387.0
385.0
367.0
387.0
371.0
343.0
320.0
263.0
235.0
103.0
0.0
0.0
0.0
0.0
0.0
0.0
0.0
0.0
3.0
2.0
23.0
23.0
23.0
27.0
32.0
43.0
53.0
71.0
87.0
99.0
161.0
355.0
391.0
387.0
379.0
384.0
339.0
307.0
273.0
259.0
145.0
3.0
0.0
0.0
0.0
0.0
0.0
0.0
0.0
0.0
0.0
31.0
11.0
32.0
39.0
39.0
35.0
39.0
64.0
75.0
87.0
128.0
203.0
391.0
381.0
385.0
365.0
343.0
323.0
307.0
267.0
207.0
71.0
0.0
0.0
0.0
0.0
0.0
0.0
0.0
0.0
7.0
19.0
11.0
37.0
35.0
32.0
49.0
55.0
64.0
79.0
87.0
99.0
179.0
371.0
391.0
385.0
375.0
359.0
337.0
311.0
267.0
241.0
134.0
0.0
0.0
0.0
0.0
0.0
0.0
0.0
0.0
0.0
11.0
15.0
33.0
23.0
35.0
39.0
43.0
49.0
64.0
83.0
97.0
143.0
283.0
381.0
384.0
369.0
371.0
355.0
331.0
295.0
251.0
183.0
65.0
0.0
0.0
0.0
0.0
0.0
0.0
0.0
3.0
3.0
25.0
11.0
27.0
43.0
35.0
35.0
47.0
65.0
79.0
87.0
109.0
192.0
391.0
379.0
385.0
375.0
359.0
327.0
293.0
247.0
224.0
151.0
66.0
0.0
0.0
0.0
0.0
0.0
0.0
0.0
0.0
7.0
17.0
27.0
23.0
33.0
33.0
35.0
33.0
33.0
27.0
23.0
43.0
119.0
187.0
230.0
263.0
271.0
243.0
231.0
215.0
197.0
160.0
115.0
64.0
3.0
0.0
0.0
0.0
0.0
0.0
0.0
11.0
19.0
23.0
23.0
27.0
32.0
32.0
33.0
23.0
19.0
11.0
19.0
43.0
115.0
175.0
215.0
251.0
263.0
247.0
235.0
211.0
192.0
151.0
97.0
33.0
0.0
0.0
0.0
0.0
0.0
0.0
3.0
11.0
13.0
27.0
33.0
33.0
39.0
39.0
34.0
31.0
19.0
17.0
32.0
91.0
151.0
199.0
243.0
267.0
251.0
235.0
225.0
199.0
167.0
115.0
64.0
7.0
0.0
0.0
0.0
0.0
0.0
0.0
15.0
19.0
31.0
35.0
33.0
35.0
35.0
35.0
31.0
23.0
15.0
19.0
64.0
129.0
179.0
225.0
258.0
243.0
239.0
225.0
207.0
171.0
131.0
69.0
15.0
0.0
0.0
0.0
0.0
0.0
0.0
7.0
21.0
23.0
23.0
33.0
39.0
38.0
35.0
32.0
23.0
19.0
19.0
33.0
99.0
167.0
215.0
255.0
259.0
247.0
235.0
215.0
195.0
155.0
101.0
43.0
0.0
0.0
0.0
0.0
0.0
0.0
3.0
17.0
19.0
27.0
33.0
35.0
39.0
33.0
32.0
23.0
23.0
11.0
27.0
79.0
143.0
192.0
231.0
263.0
239.0
231.0
215.0
195.0
161.0
119.0
65.0
7.0
0.0
0.0
0.0
0.0
0.0
0.0
11.0
19.0
23.0
35.0
39.0
35.0
39.0
35.0
33.0
23.0
19.0
23.0
51.0
119.0
183.0
225.0
257.0
251.0
241.0
227.0
215.0
183.0
145.0
83.0
23.0
0.0
0.0
0.0
0.0
0.0
0.0
7.0
23.0
19.0
33.0
35.0
37.0
35.0
35.0
27.0
23.0
21.0
23.0
35.0
99.0
163.0
203.0
243.0
263.0
243.0
231.0
215.0
195.0
153.0
103.0
51.0
1.0
0.0
0.0
0.0
0.0
0.0
2.0
11.0
19.0
27.0
32.0
35.0
35.0
39.0
35.0
27.0
19.0
15.0
31.0
71.0
135.0
183.0
231.0
257.0
239.0
229.0
221.0
199.0
167.0
123.0
67.0
21.0
0.0
0.0
0.0
0.0
0.0
0.0
3.0
23.0
23.0
33.0
39.0
39.0
35.0
39.0
31.0
23.0
17.0
23.0
51.0
115.0
175.0
231.0
259.0
251.0
241.0
231.0
213.0
192.0
145.0
94.0
35.0
0.0
0.0
0.0
0.0
0.0
0.0
7.0
19.0
19.0
27.0
3.0
27.0
23.0
17.0
23.0
23.0
47.0
79.0
192.0
499.0
483.0
448.0
438.0
2181.0
2851.0
3182.0
3834.0
3893.0
3010.0
1409.0
0.0
0.0
0.0
0.0
0.0
0.0
0.0
0.0
0.0
0.0
0.0
0.0
0.0
0.0
0.0
7.0
419.0
611.0
951.0
1735.0
3741.0
4095.0
4095.0
4095.0
4095.0
4095.0
4095.0
4095.0
4073.0
3279.0
1959.0
0.0
0.0
0.0
0.0
0.0
0.0
0.0
0.0
0.0
0.0
0.0
0.0
0.0
0.0
0.0
87.0
379.0
611.0
935.0
1527.0
3044.0
4095.0
4095.0
4095.0
4095.0
4095.0
4095.0
4095.0
4095.0
3667.0
2433.0
371.0
0.0
0.0
0.0
0.0
0.0
0.0
0.0
0.0
0.0
0.0
0.0
0.0
0.0
0.0
0.0
311.0
551.0
847.0
1265.0
2271.0
4095.0
4095.0
4095.0
4095.0
4095.0
4095.0
4095.0
4095.0
3947.0
2899.0
1045.0
0.0
0.0
0.0
0.0
0.0
0.0
0.0
0.0
0.0
0.0
0.0
0.0
0.0
0.0
55.0
224.0
531.0
807.0
1099.0
2059.0
4095.0
4095.0
4095.0
4095.0
4095.0
4095.0
4095.0
4095.0
4095.0
3091.0
1527.0
0.0
0.0
0.0
0.0
0.0
0.0
0.0
0.0
0.0
0.0
0.0
0.0
0.0
0.0
0.0
135.0
395.0
765.0
987.0
1741.0
3616.0
4095.0
4095.0
4095.0
4095.0
4095.0
4095.0
4095.0
4071.0
3331.0
2048.0
0.0
0.0
0.0
0.0
0.0
0.0
0.0
0.0
0.0
0.0
0.0
0.0
0.0
0.0
0.0
0.0
385.0
599.0
1007.0
1477.0
2730.0
4095.0
4095.0
4095.0
4095.0
4095.0
4095.0
4095.0
4095.0
3748.0
2607.0
591.0
0.0
0.0
0.0
0.0
0.0
0.0
0.0
0.0
0.0
0.0
0.0
0.0
0.0
0.0
32.0
163.0
579.0
769.0
1125.0
2031.0
4095.0
4095.0
4095.0
4095.0
4095.0
4095.0
4095.0
4095.0
3830.0
2690.0
1099.0
0.0
0.0
0.0
0.0
0.0
0.0
0.0
0.0
0.0
0.0
0.0
0.0
0.0
0.0
0.0
87.0
419.0
705.0
960.0
1687.0
3779.0
4095.0
4095.0
4095.0
4095.0
4095.0
4095.0
4095.0
4095.0
3032.0
1601.0
0.0
0.0
0.0
0.0
0.0
0.0
0.0
0.0
0.0
0.0
0.0
0.0
0.0
0.0
1.0
65.0
375.0
547.0
879.0
1335.0
2683.0
4095.0
4095.0
4095.0
4095.0
4095.0
4095.0
4095.0
4009.0
3171.0
2061.0
243.0
0.0
0.0
0.0
0.0
0.0
0.0
0.0
0.0
0.0
0.0
0.0
0.0
0.0
0.0
91.0
215.0
451.0
759.0
1099.0
1871.0
4084.0
4095.0
4095.0
4095.0
4095.0
4095.0
4095.0
4046.0
3561.0
2423.0
727.0
0.0
0.0
0.0
0.0
0.0
0.0
0.0
0.0
0.0
0.0
0.0
0.0
0.0
0.0
0.0
129.0
427.0
647.0
903.0
1731.0
3873.0
4095.0
4095.0
4095.0
4095.0
4095.0
4095.0
4089.0
3901.0
2727.0
1255.0
0.0
0.0
0.0
0.0
0.0
0.0
0.0
0.0
0.0
0.0
0.0
0.0
0.0
0.0
0.0
65.0
352.0
603.0
823.0
1465.0
3107.0
4095.0
4095.0
4095.0
4095.0
4095.0
4095.0
4095.0
3933.0
2971.0
1721.0
0.0
0.0
0.0
0.0
0.0
0.0
0.0
0.0
0.0
0.0
0.0
0.0
0.0
0.0
7.0
67.0
271.0
551.0
715.0
1197.0
2379.0
4095.0
4095.0
4095.0
4095.0
4095.0
4095.0
4095.0
4095.0
3247.0
2187.0
449.0
0.0
0.0
0.0
0.0
0.0
0.0
0.0
0.0
0.0
0.0
0.0
0.0
0.0
0.0
55.0
175.0
467.0
659.0
935.0
1751.0
3979.0
4095.0
4095.0
4095.0
4095.0
4095.0
4095.0
4076.0
3681.0
2555.0
1053.0
0.0
0.0
0.0
0.0
0.0
0.0
0.0
0.0
0.0
0.0
0.0
0.0
0.0
0.0
0.0
96.0
367.0
567.0
807.0
1491.0
3390.0
4095.0
4095.0
4095.0
4095.0
4095.0
4095.0
4095.0
3783.0
2815.0
1523.0
0.0
0.0
0.0
0.0
0.0
0.0
0.0
0.0
0.0
0.0
0.0
0.0
0.0
0.0
0.0
67.0
275.0
519.0
785.0
1265.0
2595.0
4095.0
4095.0
4095.0
4095.0
4095.0
4095.0
4095.0
3954.0
3137.0
2001.0
259.0
0.0
0.0
0.0
0.0
0.0
0.0
0.0
0.0
0.0
0.0
0.0
0.0
0.0
0.0
79.0
185.0
482.0
735.0
1099.0
1899.0
4095.0
4095.0
4095.0
4095.0
4095.0
4095.0
4095.0
4064.0
3530.0
2429.0
751.0
0.0
0.0
0.0
0.0
0.0
0.0
0.0
0.0
0.0
0.0
0.0
0.0
0.0
0.0
0.0
160.0
439.0
645.0
883.0
1687.0
3829.0
4095.0
4095.0
4095.0
4095.0
4095.0
4095.0
4095.0
3946.0
2727.0
1299.0
0.0
0.0
0.0
0.0
0.0
0.0
0.0
0.0
0.0
0.0
0.0
0.0
0.0
0.0
0.0
142.0
279.0
576.0
819.0
1473.0
3138.0
4095.0
4095.0
4095.0
4095.0
4095.0
4095.0
4095.0
3957.0
2993.0
1799.0
0.0
0.0
0.0
0.0
0.0
0.0
0.0
0.0
0.0
0.0
0.0
0.0
0.0
0.0
0.0
39.0
286.0
550.0
747.0
1219.0
2391.0
4095.0
4095.0
4095.0
4095.0
4095.0
4095.0
4095.0
4056.0
3509.0
2365.0
503.0
0.0
0.0
0.0
0.0
0.0
0.0
0.0
0.0
0.0
0.0
0.0
0.0
0.0
3.0
0.0
173.0
427.0
667.0
987.0
1799.0
4095.0
4095.0
4095.0
4095.0
4095.0
4095.0
4095.0
4095.0
3705.0
2717.0
1059.0
0.0
0.0
0.0
0.0
0.0
0.0
0.0
0.0
0.0
0.0
0.0
0.0
0.0
0.0
1.0
83.0
375.0
597.0
823.0
1575.0
3601.0
4095.0
4095.0
4095.0
4095.0
4095.0
4095.0
4075.0
4002.0
2935.0
1585.0
0.0
0.0
0.0
0.0
0.0
0.0
0.0
0.0
0.0
0.0
0.0
0.0
0.0
0.0
27.0
119.0
251.0
563.0
763.0
1379.0
2939.0
4095.0
4095.0
4095.0
4095.0
4095.0
4095.0
4095.0
4030.0
3227.0
2037.0
183.0
0.0
0.0
0.0
0.0
0.0
0.0
0.0
0.0
0.0
0.0
0.0
0.0
0.0
0.0
15.0
275.0
471.0
691.0
1131.0
2051.0
4095.0
4095.0
4095.0
4095.0
4095.0
4095.0
4095.0
4095.0
3575.0
2555.0
704.0
0.0
0.0
0.0
0.0
0.0
0.0
0.0
0.0
0.0
0.0
0.0
0.0
0.0
0.0
0.0
99.0
491.0
787.0
1041.0
2078.0
4095.0
4095.0
4095.0
4095.0
4095.0
4095.0
4095.0
4095.0
4095.0
3025.0
1383.0
0.0
0.0
0.0
0.0
0.0
0.0
0.0
0.0
0.0
0.0
0.0
0.0
0.0
0.0
35.0
55.0
359.0
687.0
979.0
1751.0
3879.0
4095.0
4095.0
4095.0
4095.0
4095.0
4095.0
4095.0
4095.0
3316.0
2016.0
0.0
0.0
0.0
0.0
0.0
0.0
0.0
0.0
0.0
0.0
0.0
0.0
0.0
0.0
0.0
83.0
359.0
599.0
867.0
1475.0
3061.0
4095.0
4095.0
4095.0
4095.0
4095.0
4095.0
4095.0
4095.0
3712.0
2512.0
467.0
0.0
0.0
0.0
0.0
0.0
0.0
0.0
0.0
0.0
0.0
0.0
0.0
0.0
0.0
35.0
251.0
523.0
855.0
1187.0
2215.0
4095.0
4095.0
4095.0
4095.0
4095.0
4095.0
4095.0
4095.0
4073.0
2911.0
1056.0
0.0
0.0
0.0
0.0
0.0
0.0
0.0
0.0
0.0
0.0
0.0
0.0
0.0
0.0
23.0
199.0
463.0
723.0
993.0
1915.0
4095.0
4095.0
4095.0
4095.0
4095.0
4095.0
4095.0
4095.0
4095.0
3203.0
1649.0
0.0
0.0
0.0
0.0
0.0
0.0
0.0
0.0
0.0
0.0
0.0
0.0
0.0
0.0
0.0
1.0
307.0
591.0
929.0
1595.0
3520.0
4095.0
4095.0
4095.0
4095.0
4095.0
4095.0
4095.0
4095.0
3473.0
2283.0
35.0
0.0
0.0
0.0
0.0
0.0
0.0
0.0
0.0
0.0
0.0
0.0
0.0
0.0
19.0
107.0
243.0
543.0
847.0
1319.0
2455.0
4095.0
4095.0
4095.0
4095.0
4095.0
4095.0
4095.0
4095.0
3805.0
2691.0
707.0
0.0
0.0
0.0
0.0
0.0
0.0
0.0
0.0
0.0
0.0
0.0
0.0
0.0
0.0
0.0
192.0
459.0
767.0
1061.0
2067.0
4095.0
4095.0
4095.0
4095.0
4095.0
4095.0
4095.0
4095.0
4095.0
3054.0
1445.0
0.0
0.0
0.0
0.0
0.0
0.0
0.0
0.0
0.0
0.0
0.0
0.0
0.0
0.0
7.0
37.0
299.0
599.0
851.0
1611.0
3555.0
4095.0
4095.0
4095.0
4095.0
4095.0
4095.0
4095.0
4042.0
3467.0
2413.0
679.0
267.0
19.0
0.0
0.0
0.0
0.0
0.0
0.0
0.0
0.0
0.0
0.0
0.0
0.0
3.0
33.0
64.0
81.0
151.0
327.0
463.0
431.0
411.0
355.0
343.0
323.0
267.0
253.0
160.0
23.0
0.0
0.0
0.0
0.0
0.0
0.0
0.0
7.0
0.0
3.0
23.0
43.0
39.0
35.0
43.0
64.0
75.0
113.0
129.0
151.0
263.0
487.0
439.0
407.0
401.0
369.0
327.0
311.0
263.0
215.0
79.0
0.0
0.0
0.0
0.0
0.0
0.0
0.0
0.0
3.0
23.0
7.0
32.0
39.0
23.0
55.0
39.0
65.0
91.0
119.0
147.0
225.0
470.0
467.0
443.0
391.0
389.0
343.0
315.0
251.0
259.0
115.0
0.0
0.0
0.0
0.0
0.0
0.0
0.0
0.0
1.0
3.0
39.0
27.0
15.0
51.0
47.0
49.0
55.0
67.0
111.0
129.0
175.0
327.0
475.0
423.0
419.0
395.0
331.0
323.0
299.0
231.0
195.0
27.0
0.0
0.0
0.0
0.0
0.0
0.0
0.0
0.0
23.0
15.0
15.0
17.0
33.0
25.0
47.0
66.0
67.0
103.0
131.0
135.0
247.0
487.0
443.0
419.0
407.0
359.0
321.0
295.0
263.0
227.0
83.0
0.0
0.0
0.0
0.0
0.0
0.0
0.0
0.0
3.0
3.0
19.0
15.0
27.0
23.0
23.0
55.0
59.0
87.0
107.0
131.0
207.0
427.0
455.0
416.0
391.0
384.0
321.0
320.0
259.0
215.0
143.0
0.0
0.0
0.0
0.0
0.0
0.0
0.0
0.0
2.0
0.0
19.0
35.0
37.0
17.0
35.0
47.0
47.0
71.0
103.0
119.0
171.0
279.0
475.0
418.0
411.0
383.0
353.0
320.0
303.0
259.0
199.0
49.0
0.0
0.0
0.0
0.0
0.0
0.0
0.0
0.0
11.0
7.0
19.0
27.0
11.0
46.0
45.0
47.0
65.0
97.0
111.0
131.0
231.0
471.0
431.0
416.0
390.0
355.0
341.0
299.0
243.0
251.0
111.0
0.0
0.0
0.0
0.0
0.0
0.0
0.0
0.0
0.0
19.0
15.0
47.0
15.0
39.0
27.0
49.0
55.0
79.0
103.0
125.0
203.0
417.0
459.0
419.0
403.0
373.0
337.0
303.0
259.0
243.0
143.0
1.0
0.0
0.0
0.0
0.0
0.0
0.0
0.0
1.0
11.0
7.0
27.0
15.0
35.0
27.0
55.0
66.0
87.0
99.0
128.0
155.0
257.0
459.0
416.0
414.0
371.0
339.0
327.0
279.0
247.0
227.0
67.0
0.0
0.0
0.0
0.0
0.0
0.0
0.0
0.0
0.0
15.0
7.0
39.0
47.0
35.0
51.0
35.0
55.0
85.0
107.0
135.0
225.0
483.0
451.0
407.0
399.0
367.0
323.0
287.0
257.0
215.0
107.0
0.0
0.0
0.0
0.0
0.0
0.0
0.0
0.0
1.0
15.0
3.0
35.0
15.0
19.0
31.0
55.0
64.0
75.0
99.0
128.0
177.0
371.0
459.0
403.0
403.0
363.0
343.0
323.0
263.0
247.0
179.0
21.0
0.0
0.0
0.0
0.0
0.0
0.0
0.0
0.0
0.0
19.0
32.0
11.0
19.0
39.0
55.0
47.0
75.0
91.0
111.0
147.0
247.0
483.0
431.0
423.0
375.0
355.0
343.0
307.0
259.0
226.0
67.0
0.0
0.0
0.0
0.0
0.0
0.0
0.0
0.0
15.0
19.0
7.0
51.0
35.0
35.0
43.0
37.0
66.0
87.0
107.0
131.0
215.0
459.0
448.0
411.0
399.0
353.0
339.0
291.0
263.0
215.0
107.0
0.0
0.0
0.0
0.0
0.0
0.0
0.0
0.0
15.0
35.0
39.0
31.0
51.0
35.0
43.0
43.0
47.0
79.0
95.0
119.0
181.0
309.0
463.0
439.0
391.0
385.0
335.0
307.0
257.0
231.0
175.0
23.0
0.0
0.0
0.0
0.0
0.0
0.0
0.0
0.0
3.0
3.0
23.0
32.0
23.0
35.0
55.0
39.0
71.0
87.0
128.0
135.0
235.0
487.0
435.0
407.0
387.0
359.0
321.0
267.0
259.0
203.0
87.0
0.0
0.0
0.0
0.0
0.0
0.0
0.0
0.0
15.0
23.0
11.0
19.0
33.0
27.0
47.0
51.0
45.0
87.0
103.0
129.0
199.0
435.0
443.0
423.0
401.0
365.0
323.0
303.0
261.0
225.0
131.0
0.0
0.0
0.0
0.0
0.0
0.0
0.0
0.0
7.0
7.0
33.0
7.0
39.0
23.0
35.0
51.0
59.0
71.0
96.0
128.0
160.0
251.0
483.0
448.0
414.0
387.0
343.0
307.0
271.0
239.0
183.0
55.0
0.0
0.0
0.0
0.0
0.0
0.0
0.0
0.0
7.0
23.0
33.0
17.0
33.0
51.0
51.0
47.0
55.0
83.0
110.0
135.0
231.0
503.0
450.0
419.0
391.0
371.0
337.0
303.0
263.0
209.0
97.0
0.0
0.0
0.0
0.0
0.0
0.0
0.0
0.0
0.0
3.0
19.0
33.0
47.0
55.0
47.0
39.0
55.0
83.0
107.0
131.0
192.0
375.0
457.0
439.0
391.0
375.0
347.0
311.0
263.0
235.0
161.0
23.0
0.0
0.0
0.0
0.0
0.0
0.0
0.0
0.0
5.0
32.0
23.0
17.0
35.0
39.0
64.0
49.0
67.0
95.0
128.0
147.0
246.0
475.0
439.0
419.0
387.0
343.0
323.0
289.0
247.0
199.0
75.0
0.0
0.0
0.0
0.0
0.0
0.0
0.0
0.0
0.0
27.0
19.0
27.0
39.0
32.0
45.0
51.0
47.0
65.0
87.0
99.0
175.0
367.0
391.0
374.0
363.0
347.0
311.0
288.0
243.0
227.0
171.0
71.0
0.0
0.0
0.0
0.0
0.0
0.0
0.0
0.0
11.0
23.0
23.0
35.0
39.0
35.0
43.0
43.0
43.0
39.0
39.0
47.0
71.0
135.0
173.0
203.0
225.0
231.0
215.0
199.0
183.0
151.0
113.0
75.0
23.0
0.0
0.0
0.0
0.0
0.0
0.0
7.0
17.0
17.0
33.0
35.0
39.0
43.0
39.0
43.0
39.0
39.0
43.0
55.0
111.0
165.0
206.0
231.0
243.0
231.0
215.0
197.0
175.0
139.0
91.0
39.0
0.0
0.0
0.0
0.0
0.0
0.0
2.0
15.0
19.0
23.0
33.0
39.0
35.0
45.0
43.0
43.0
43.0
39.0
47.0
87.0
139.0
179.0
215.0
241.0
235.0
227.0
207.0
193.0
163.0
115.0
75.0
19.0
0.0
0.0
0.0
0.0
0.0
0.0
7.0
19.0
23.0
35.0
33.0
37.0
43.0
46.0
37.0
37.0
33.0
33.0
47.0
115.0
167.0
203.0
235.0
247.0
239.0
229.0
207.0
183.0
147.0
97.0
39.0
0.0
0.0
0.0
0.0
0.0
0.0
3.0
7.0
15.0
27.0
32.0
35.0
35.0
39.0
39.0
35.0
35.0
27.0
39.0
87.0
147.0
183.0
224.0
243.0
235.0
227.0
207.0
192.0
159.0
113.0
65.0
19.0
0.0
0.0
0.0
0.0
0.0
0.0
3.0
23.0
19.0
27.0
38.0
37.0
39.0
39.0
35.0
33.0
29.0
35.0
71.0
129.0
167.0
207.0
235.0
235.0
231.0
211.0
197.0
163.0
131.0
73.0
19.0
0.0
0.0
0.0
0.0
0.0
0.0
1.0
15.0
19.0
23.0
33.0
33.0
37.0
37.0
35.0
32.0
27.0
33.0
43.0
107.0
163.0
203.0
231.0
247.0
241.0
227.0
205.0
193.0
147.0
99.0
47.0
3.0
0.0
0.0
0.0
0.0
0.0
0.0
7.0
17.0
27.0
33.0
39.0
39.0
39.0
38.0
37.0
32.0
27.0
39.0
87.0
145.0
192.0
229.0
247.0
246.0
235.0
215.0
195.0
163.0
123.0
67.0
15.0
0.0
0.0
0.0
0.0
0.0
0.0
5.0
17.0
19.0
29.0
0.0
0.0
0.0
0.0
0.0
0.0
0.0
387.0
1728.0
4095.0
4095.0
4095.0
4095.0
4095.0
4095.0
4095.0
4095.0
3677.0
2561.0
547.0
0.0
0.0
0.0
0.0
0.0
0.0
0.0
0.0
0.0
0.0
0.0
0.0
0.0
0.0
0.0
71.0
323.0
479.0
707.0
1376.0
3307.0
4095.0
4095.0
4095.0
4095.0
4095.0
3988.0
3529.0
3037.0
1993.0
659.0
0.0
0.0
0.0
0.0
0.0
0.0
0.0
0.0
0.0
0.0
0.0
0.0
0.0
0.0
0.0
99.0
215.0
391.0
547.0
1123.0
2631.0
3950.0
4095.0
4095.0
4095.0
4087.0
4041.0
3701.0
3379.0
2419.0
1227.0
0.0
0.0
0.0
0.0
0.0
0.0
0.0
0.0
0.0
0.0
0.0
0.0
0.0
0.0
0.0
0.0
231.0
367.0
503.0
887.0
1987.0
3450.0
4095.0
4095.0
4095.0
4095.0
4095.0
3879.0
3475.0
2663.0
1683.0
193.0
0.0
0.0
0.0
0.0
0.0
0.0
0.0
0.0
0.0
0.0
0.0
0.0
0.0
17.0
0.0
131.0
275.0
461.0
725.0
1299.0
3055.0
4095.0
4095.0
4095.0
4095.0
4095.0
3993.0
3493.0
2987.0
1959.0
673.0
0.0
0.0
0.0
0.0
0.0
0.0
0.0
0.0
0.0
0.0
0.0
0.0
0.0
0.0
0.0
51.0
263.0
459.0
567.0
1165.0
2740.0
4034.0
4095.0
4095.0
4095.0
4095.0
4078.0
3589.0
3269.0
2275.0
1205.0
0.0
0.0
0.0
0.0
0.0
0.0
0.0
0.0
0.0
0.0
0.0
0.0
0.0
0.0
0.0
19.0
199.0
367.0
535.0
987.0
2179.0
3644.0
4095.0
4095.0
4095.0
4095.0
4095.0
3730.0
3547.0
2567.0
1568.0
111.0
0.0
0.0
0.0
0.0
0.0
0.0
0.0
0.0
0.0
0.0
0.0
0.0
0.0
0.0
0.0
139.0
339.0
487.0
832.0
1543.0
3341.0
4095.0
4095.0
4095.0
4095.0
4071.0
3974.0
3535.0
2915.0
1911.0
579.0
0.0
0.0
0.0
0.0
0.0
0.0
0.0
0.0
0.0
0.0
0.0
0.0
0.0
0.0
0.0
135.0
263.0
463.0
631.0
1251.0
2917.0
4095.0
4095.0
4095.0
4095.0
4095.0
3919.0
3645.0
3233.0
2246.0
961.0
0.0
0.0
0.0
0.0
0.0
0.0
0.0
0.0
0.0
0.0
0.0
0.0
0.0
0.0
0.0
35.0
227.0
423.0
555.0
1047.0
2327.0
3847.0
4095.0
4095.0
4095.0
4095.0
4095.0
3899.0
3309.0
2418.0
1371.0
0.0
0.0
0.0
0.0
0.0
0.0
0.0
0.0
0.0
0.0
0.0
0.0
0.0
0.0
0.0
0.0
185.0
320.0
523.0
881.0
1911.0
3422.0
4095.0
4095.0
4095.0
4095.0
4095.0
3971.0
3617.0
2875.0
1856.0
355.0
0.0
0.0
0.0
0.0
0.0
0.0
0.0
0.0
0.0
0.0
0.0
0.0
0.0
0.0
7.0
115.0
255.0
448.0
719.0
1291.0
3027.0
4095.0
4095.0
4095.0
4095.0
4095.0
3917.0
3562.0
3137.0
2071.0
811.0
0.0
0.0
0.0
0.0
0.0
0.0
0.0
0.0
0.0
0.0
0.0
0.0
0.0
0.0
0.0
51.0
269.0
419.0
563.0
1137.0
2656.0
4000.0
4095.0
4095.0
4095.0
4095.0
4053.0
3848.0
3294.0
2363.0
1216.0
0.0
0.0
0.0
0.0
0.0
0.0
0.0
0.0
0.0
0.0
0.0
0.0
0.0
0.0
31.0
0.0
183.0
429.0
527.0
951.0
2131.0
3581.0
4095.0
4095.0
4095.0
4095.0
4095.0
3863.0
3416.0
2735.0
1685.0
183.0
0.0
0.0
0.0
0.0
0.0
0.0
0.0
0.0
0.0
0.0
0.0
0.0
0.0
0.0
0.0
163.0
320.0
544.0
791.0
1387.0
3323.0
4095.0
4095.0
4095.0
4095.0
4095.0
3835.0
3541.0
3051.0
1997.0
657.0
0.0
0.0
0.0
0.0
0.0
0.0
0.0
0.0
0.0
0.0
0.0
0.0
0.0
0.0
0.0
163.0
291.0
423.0
601.0
1227.0
2779.0
4095.0
4095.0
4095.0
4095.0
4095.0
3928.0
3773.0
3278.0
2323.0
1103.0
0.0
0.0
0.0
0.0
0.0
0.0
0.0
0.0
0.0
0.0
0.0
0.0
0.0
0.0
0.0
43.0
247.0
407.0
581.0
1019.0
2326.0
3877.0
4095.0
4095.0
4095.0
4095.0
4008.0
3839.0
3524.0
2546.0
1568.0
0.0
0.0
0.0
0.0
0.0
0.0
0.0
0.0
0.0
0.0
0.0
0.0
0.0
0.0
0.0
87.0
195.0
331.0
535.0
845.0
1779.0
3515.0
4095.0
4095.0
4095.0
4095.0
4095.0
3836.0
3661.0
2891.0
1889.0
455.0
0.0
0.0
0.0
0.0
0.0
0.0
0.0
0.0
0.0
0.0
0.0
0.0
0.0
0.0
0.0
129.0
247.0
497.0
679.0
1278.0
3038.0
4095.0
4095.0
4095.0
4095.0
4095.0
3990.0
3759.0
3255.0
2167.0
859.0
0.0
0.0
0.0
0.0
0.0
0.0
0.0
0.0
0.0
0.0
0.0
0.0
0.0
0.0
0.0
87.0
247.0
411.0
595.0
1101.0
2573.0
3940.0
4095.0
4095.0
4095.0
4095.0
4039.0
3868.0
3357.0
2513.0
1327.0
0.0
0.0
0.0
0.0
0.0
0.0
0.0
0.0
0.0
0.0
0.0
0.0
0.0
0.0
0.0
33.0
157.0
403.0
531.0
939.0
1987.0
3538.0
4095.0
4095.0
4095.0
4095.0
4040.0
3953.0
3623.0
2703.0
1760.0
286.0
0.0
0.0
0.0
0.0
0.0
0.0
0.0
0.0
0.0
0.0
0.0
0.0
0.0
0.0
19.0
177.0
289.0
467.0
755.0
1346.0
3189.0
4095.0
4095.0
4095.0
4095.0
4064.0
4027.0
3509.0
3015.0
2067.0
667.0
0.0
0.0
0.0
0.0
0.0
0.0
0.0
0.0
0.0
0.0
0.0
0.0
0.0
0.0
0.0
51.0
327.0
449.0
599.0
1179.0
2746.0
3959.0
4095.0
4095.0
4095.0
4095.0
4037.0
3797.0
3312.0
2429.0
1207.0
0.0
0.0
0.0
0.0
0.0
0.0
0.0
0.0
0.0
0.0
0.0
0.0
0.0
0.0
11.0
7.0
247.0
395.0
544.0
975.0
2273.0
3638.0
4095.0
4095.0
4095.0
4095.0
4095.0
3872.0
3533.0
2627.0
1585.0
65.0
0.0
0.0
0.0
0.0
0.0
0.0
0.0
0.0
0.0
0.0
0.0
0.0
0.0
0.0
65.0
145.0
289.0
481.0
789.0
1502.0
3251.0
4095.0
4095.0
4095.0
4095.0
4085.0
3992.0
3589.0
2951.0
1971.0
576.0
0.0
0.0
0.0
0.0
0.0
0.0
0.0
0.0
0.0
0.0
0.0
0.0
0.0
0.0
0.0
75.0
267.0
455.0
673.0
1239.0
2973.0
4095.0
4095.0
4095.0
4095.0
4040.0
4095.0
3697.0
3246.0
2251.0
1063.0
0.0
0.0
0.0
0.0
0.0
0.0
0.0
0.0
0.0
0.0
0.0
0.0
0.0
0.0
0.0
75.0
277.0
359.0
576.0
1063.0
2475.0
3874.0
4095.0
4095.0
4095.0
4095.0
4095.0
3719.0
3415.0
2541.0
1435.0
0.0
0.0
0.0
0.0
0.0
0.0
0.0
0.0
0.0
0.0
0.0
0.0
0.0
0.0
1.0
55.0
227.0
375.0
507.0
867.0
1889.0
3554.0
4095.0
4095.0
4095.0
4095.0
4076.0
3987.0
3679.0
2806.0
1811.0
395.0
0.0
0.0
0.0
0.0
0.0
0.0
0.0
0.0
0.0
0.0
0.0
0.0
0.0
0.0
0.0
113.0
352.0
497.0
723.0
1299.0
3026.0
4095.0
4095.0
4095.0
4095.0
4095.0
4080.0
3551.0
3075.0
2127.0
845.0
0.0
0.0
0.0
0.0
0.0
0.0
0.0
0.0
0.0
0.0
0.0
0.0
0.0
0.0
0.0
103.0
271.0
375.0
599.0
1131.0
2589.0
3872.0
4095.0
4095.0
4095.0
4095.0
4051.0
3735.0
3437.0
2431.0
1239.0
0.0
0.0
0.0
0.0
0.0
0.0
0.0
0.0
0.0
0.0
0.0
0.0
0.0
0.0
0.0
0.0
227.0
387.0
527.0
951.0
2147.0
3710.0
4095.0
4095.0
4095.0
4095.0
4095.0
3837.0
3534.0
2727.0
1751.0
209.0
0.0
0.0
0.0
0.0
0.0
0.0
0.0
0.0
0.0
0.0
0.0
0.0
0.0
0.0
32.0
199.0
399.0
495.0
783.0
1495.0
3287.0
4095.0
4095.0
4095.0
4095.0
4095.0
4020.0
3587.0
2953.0
2055.0
679.0
0.0
0.0
0.0
0.0
0.0
0.0
0.0
0.0
0.0
0.0
0.0
0.0
0.0
0.0
0.0
143.0
271.0
439.0
611.0
1235.0
2933.0
0.0
0.0
0.0
0.0
1.0
15.0
17.0
29.0
35.0
39.0
35.0
35.0
33.0
32.0
23.0
22.0
35.0
97.0
163.0
203.0
243.0
271.0
239.0
231.0
219.0
195.0
161.0
111.0
63.0
7.0
0.0
0.0
0.0
0.0
0.0
0.0
15.0
23.0
23.0
31.0
33.0
35.0
35.0
35.0
33.0
23.0
23.0
35.0
75.0
139.0
193.0
229.0
259.0
247.0
235.0
225.0
203.0
171.0
129.0
67.0
7.0
0.0
0.0
0.0
0.0
0.0
0.0
7.0
0.0
3.0
9.0
0.0
0.0
0.0
0.0
0.0
0.0
129.0
623.0
1664.0
4095.0
4095.0
4095.0
4095.0
4093.0
4089.0
3771.0
3455.0
2786.0
1722.0
259.0
0.0
0.0
0.0
0.0
0.0
0.0
0.0
0.0
0.0
0.0
0.0
0.0
0.0
0.0
0.0
145.0
275.0
438.0
683.0
1283.0
2915.0
4095.0
4095.0
4095.0
4095.0
4095.0
3995.0
3671.0
3099.0
2155.0
817.0
0.0
0.0
0.0
0.0
0.0
0.0
0.0
0.0
0.0
0.0
0.0
0.0
0.0
0.0
0.0
3.0
271.0
423.0
615.0
1101.0
2447.0
3922.0
4095.0
4095.0
4095.0
4095.0
4095.0
3671.0
3421.0
2363.0
1267.0
0.0
0.0
0.0
0.0
0.0
0.0
0.0
0.0
0.0
0.0
0.0
0.0
0.0
0.0
0.0
3.0
227.0
375.0
561.0
915.0
1831.0
3498.0
4095.0
4095.0
4095.0
4095.0
4032.0
3805.0
3541.0
2831.0
1709.0
325.0
0.0
0.0
0.0
0.0
0.0
0.0
0.0
0.0
0.0
0.0
0.0
0.0
0.0
0.0
0.0
149.0
337.0
567.0
757.0
1355.0
3031.0
4095.0
4095.0
4095.0
4095.0
4095.0
4051.0
3558.0
3057.0
2048.0
743.0
0.0
0.0
0.0
0.0
0.0
0.0
0.0
0.0
0.0
0.0
0.0
0.0
0.0
13.0
65.0
129.0
295.0
519.0
651.0
1175.0
2675.0
4058.0
4095.0
4095.0
4095.0
4095.0
3990.0
3686.0
3306.0
2311.0
1131.0
0.0
0.0
0.0
0.0
0.0
0.0
0.0
0.0
0.0
0.0
0.0
0.0
0.0
0.0
0.0
39.0
247.0
448.0
583.0
1023.0
2099.0
3539.0
4095.0
4095.0
4095.0
4095.0
3961.0
3835.0
3230.0
2567.0
1495.0
32.0
0.0
0.0
0.0
0.0
0.0
0.0
0.0
0.0
0.0
0.0
0.0
0.0
0.0
0.0
0.0
187.0
399.0
587.0
863.0
1431.0
3159.0
4095.0
4095.0
4095.0
4095.0
4086.0
3763.0
3585.0
2852.0
1851.0
511.0
0.0
0.0
0.0
0.0
0.0
0.0
0.0
0.0
0.0
0.0
0.0
0.0
0.0
0.0
0.0
111.0
359.0
495.0
743.0
1325.0
2939.0
4095.0
4095.0
4095.0
4095.0
4095.0
4095.0
3751.0
3365.0
2213.0
947.0
0.0
0.0
0.0
0.0
0.0
0.0
0.0
0.0
0.0
0.0
0.0
0.0
0.0
0.0
0.0
37.0
295.0
587.0
835.0
1523.0
3331.0
4095.0
4095.0
4095.0
4095.0
4095.0
4095.0
4095.0
4095.0
3583.0
2261.0
183.0
0.0
0.0
0.0
0.0
0.0
0.0
0.0
0.0
0.0
0.0
0.0
0.0
0.0
0.0
1.0
271.0
583.0
835.0
1355.0
2484.0
4095.0
4095.0
4095.0
4095.0
4095.0
4095.0
4095.0
4095.0
3887.0
2781.0
897.0
0.0
0.0
0.0
0.0
0.0
0.0
0.0
0.0
0.0
0.0
0.0
0.0
0.0
0.0
0.0
119.0
455.0
736.0
1061.0
2063.0
4095.0
4095.0
4095.0
4095.0
4095.0
4095.0
4095.0
4095.0
4057.0
3095.0
1551.0
0.0
0.0
0.0
0.0
0.0
0.0
0.0
0.0
0.0
0.0
0.0
0.0
0.0
0.0
0.0
11.0
277.0
619.0
862.0
1659.0
3611.0
4095.0
4095.0
4095.0
4095.0
4095.0
4095.0
4095.0
4095.0
3637.0
2631.0
651.0
3.0
0.0
0.0
0.0
0.0
0.0
0.0
0.0
0.0
0.0
0.0
0.0
0.0
0.0
0.0
0.0
0.0
87.0
163.0
143.0
192.0
225.0
257.0
259.0
247.0
235.0
215.0
193.0
160.0
119.0
71.0
7.0
0.0
0.0
0.0
0.0
0.0
0.0
1.0
11.0
11.0
23.0
35.0
37.0
39.0
35.0
33.0
27.0
23.0
23.0
39.0
99.0
163.0
214.0
247.0
273.0
247.0
235.0
225.0
203.0
167.0
115.0
64.0
3.0
0.0
0.0
0.0
0.0
0.0
0.0
11.0
23.0
27.0
32.0
33.0
39.0
35.0
39.0
33.0
23.0
17.0
27.0
67.0
131.0
179.0
231.0
259.0
243.0
235.0
227.0
205.0
173.0
135.0
75.0
17.0
0.0
0.0
0.0
0.0
0.0
0.0
7.0
19.0
19.0
27.0
39.0
39.0
39.0
36.0
35.0
31.0
27.0
23.0
35.0
107.0
173.0
219.0
251.0
267.0
247.0
231.0
219.0
195.0
158.0
103.0
49.0
0.0
0.0
0.0
0.0
0.0
0.0
0.0
11.0
19.0
23.0
32.0
35.0
37.0
33.0
32.0
32.0
19.0
17.0
32.0
75.0
139.0
193.0
231.0
263.0
247.0
231.0
215.0
199.0
163.0
119.0
65.0
15.0
0.0
0.0
0.0
0.0
0.0
0.0
7.0
23.0
23.0
29.0
35.0
35.0
35.0
35.0
31.0
23.0
19.0
27.0
59.0
128.0
175.0
223.0
251.0
259.0
235.0
227.0
203.0
179.0
139.0
79.0
27.0
0.0
0.0
0.0
0.0
0.0
0.0
7.0
15.0
23.0
33.0
33.0
39.0
39.0
35.0
33.0
32.0
23.0
23.0
35.0
99.0
167.0
211.0
251.0
271.0
253.0
241.0
225.0
199.0
163.0
111.0
51.0
0.0
0.0
0.0
0.0
0.0
0.0
0.0
11.0
15.0
19.0
5.0
0.0
0.0
0.0
0.0
0.0
0.0
111.0
891.0
2894.0
4095.0
4095.0
4095.0
4095.0
4095.0
4095.0
4021.0
3778.0
2709.0
1491.0
0.0
0.0
0.0
0.0
0.0
0.0
0.0
0.0
0.0
0.0
0.0
0.0
0.0
0.0
0.0
23.0
155.0
371.0
551.0
931.0
1937.0
3553.0
4095.0
4095.0
4095.0
4095.0
4095.0
3807.0
3427.0
2709.0
1849.0
337.0
0.0
0.0
0.0
0.0
0.0
0.0
0.0
0.0
0.0
0.0
0.0
0.0
0.0
0.0
13.0
135.0
311.0
467.0
719.0
1327.0
3175.0
4095.0
4095.0
4095.0
4095.0
4095.0
3893.0
3548.0
3195.0
2163.0
839.0
0.0
0.0
0.0
0.0
0.0
0.0
0.0
0.0
0.0
0.0
0.0
0.0
0.0
0.0
0.0
55.0
305.0
435.0
559.0
1135.0
2691.0
3932.0
4095.0
4095.0
4095.0
4095.0
4090.0
3797.0
3188.0
2368.0
1248.0
0.0
0.0
0.0
0.0
0.0
0.0
0.0
0.0
0.0
0.0
0.0
0.0
0.0
0.0
0.0
47.0
195.0
413.0
569.0
951.0
2063.0
3540.0
4095.0
4095.0
4095.0
4095.0
4014.0
3722.0
3481.0
2657.0
1791.0
291.0
0.0
0.0
0.0
0.0
0.0
0.0
0.0
0.0
0.0
0.0
0.0
0.0
0.0
0.0
0.0
103.0
355.0
503.0
784.0
1335.0
3207.0
4095.0
4095.0
4095.0
4095.0
4095.0
3911.0
3611.0
3021.0
1975.0
707.0
0.0
0.0
0.0
0.0
0.0
0.0
0.0
0.0
0.0
0.0
0.0
0.0
0.0
0.0
0.0
111.0
257.0
481.0
615.0
1223.0
2755.0
4058.0
4095.0
4095.0
4095.0
4095.0
4095.0
3575.0
3246.0
2286.0
1179.0
0.0
0.0
0.0
0.0
0.0
0.0
0.0
0.0
0.0
0.0
0.0
0.0
0.0
0.0
0.0
51.0
195.0
399.0
567.0
1039.0
2174.0
3687.0
4095.0
4095.0
4095.0
4095.0
4095.0
3889.0
3439.0
2509.0
1591.0
87.0
0.0
0.0
0.0
0.0
0.0
0.0
0.0
0.0
0.0
0.0
0.0
0.0
0.0
0.0
47.0
203.0
403.0
483.0
855.0
1587.0
3359.0
4095.0
4095.0
4095.0
4095.0
4095.0
3760.0
3406.0
2835.0
1839.0
485.0
0.0
0.0
0.0
0.0
0.0
0.0
0.0
0.0
0.0
0.0
0.0
0.0
0.0
0.0
0.0
161.0
291.0
423.0
679.0
1237.0
2742.0
4023.0
4095.0
4095.0
4075.0
4004.0
3814.0
3379.0
2907.0
2011.0
785.0
0.0
0.0
0.0
0.0
0.0
0.0
0.0
0.0
0.0
0.0
0.0
0.0
0.0
0.0
0.0
35.0
195.0
449.0
549.0
1031.0
2333.0
3659.0
4095.0
4095.0
4095.0
4095.0
3839.0
3435.0
3003.0
2245.0
1123.0
0.0
0.0
0.0
0.0
0.0
0.0
0.0
0.0
0.0
0.0
0.0
0.0
0.0
0.0
0.0
0.0
167.0
343.0
541.0
867.0
1855.0
3293.0
4095.0
4095.0
4095.0
4090.0
3939.0
3571.0
3223.0
2469.0
1543.0
147.0
0.0
0.0
0.0
0.0
0.0
0.0
0.0
0.0
0.0
0.0
0.0
0.0
0.0
31.0
23.0
183.0
311.0
435.0
719.0
1243.0
3011.0
3949.0
4095.0
4095.0
4095.0
4095.0
3804.0
3389.0
2727.0
1887.0
579.0
0.0
0.0
0.0
0.0
0.0
0.0
0.0
0.0
0.0
0.0
0.0
0.0
0.0
0.0
0.0
67.0
235.0
415.0
559.0
1141.0
2496.0
3754.0
4095.0
4095.0
4095.0
4095.0
3874.0
3503.0
3122.0
2145.0
1057.0
0.0
0.0
0.0
0.0
0.0
0.0
0.0
0.0
0.0
0.0
0.0
0.0
0.0
0.0
35.0
23.0
263.0
369.0
547.0
983.0
2131.0
3575.0
4095.0
4095.0
4095.0
4095.0
4014.0
3627.0
3331.0
2399.0
1479.0
7.0
0.0
0.0
0.0
0.0
0.0
0.0
0.0
0.0
0.0
0.0
0.0
0.0
0.0
0.0
0.0
160.0
331.0
525.0
823.0
1539.0
3243.0
4095.0
4095.0
4095.0
4095.0
4095.0
3872.0
3415.0
2795.0
1824.0
449.0
0.0
0.0
0.0
0.0
0.0
0.0
0.0
0.0
0.0
0.0
0.0
0.0
0.0
3.0
0.0
177.0
310.0
531.0
643.0
1249.0
2761.0
4030.0
4095.0
4095.0
4095.0
4095.0
4051.0
3707.0
3191.0
2129.0
961.0
0.0
0.0
0.0
0.0
0.0
0.0
0.0
0.0
0.0
0.0
0.0
0.0
0.0
0.0
0.0
99.0
233.0
431.0
592.0
1089.0
2469.0
3894.0
4095.0
4095.0
4095.0
4095.0
4095.0
3794.0
3585.0
2565.0
1437.0
0.0
0.0
0.0
0.0
0.0
0.0
0.0
0.0
0.0
0.0
0.0
0.0
0.0
0.0
0.0
0.0
187.0
515.0
783.0
1361.0
2901.0
4095.0
4095.0
4095.0
4095.0
4095.0
4095.0
4095.0
4095.0
3751.0
3027.0
1735.0
1095.0
833.0
673.0
555.0
435.0
391.0
335.0
303.0
271.0
227.0
211.0
187.0
175.0
151.0
128.0
113.0
99.0
91.0
97.0
113.0
171.0
224.0
263.0
279.0
275.0
251.0
235.0
221.0
193.0
155.0
97.0
43.0
0.0
0.0
0.0
0.0
0.0
0.0
3.0
15.0
19.0
33.0
35.0
39.0
39.0
39.0
35.0
33.0
23.0
19.0
35.0
97.0
151.0
205.0
241.0
263.0
243.0
239.0
215.0
199.0
171.0
115.0
71.0
11.0
0.0
0.0
0.0
0.0
0.0
0.0
7.0
15.0
23.0
32.0
35.0
35.0
35.0
33.0
27.0
23.0
19.0
23.0
67.0
131.0
177.0
221.0
253.0
255.0
251.0
239.0
219.0
194.0
151.0
91.0
33.0
0.0
0.0
0.0
0.0
0.0
0.0
7.0
23.0
23.0
32.0
33.0
35.0
43.0
35.0
32.0
31.0
27.0
27.0
39.0
103.0
167.0
215.0
253.0
267.0
243.0
239.0
219.0
195.0
159.0
107.0
49.0
3.0
0.0
0.0
0.0
0.0
0.0
0.0
11.0
17.0
27.0
31.0
39.0
39.0
39.0
33.0
27.0
19.0
17.0
27.0
79.0
143.0
193.0
235.0
263.0
243.0
239.0
225.0
205.0
171.0
128.0
66.0
3.0
0.0
0.0
0.0
0.0
0.0
0.0
7.0
19.0
23.0
27.0
35.0
33.0
35.0
35.0
27.0
21.0
17.0
19.0
51.0
119.0
179.0
231.0
263.0
255.0
247.0
235.0
219.0
193.0
151.0
96.0
35.0
0.0
0.0
0.0
0.0
0.0
0.0
1.0
19.0
19.0
32.0
33.0
39.0
35.0
39.0
35.0
27.0
23.0
19.0
35.0
99.0
163.0
215.0
251.0
279.0
251.0
247.0
227.0
207.0
167.0
115.0
64.0
3.0
0.0
0.0
0.0
0.0
0.0
0.0
9.0
15.0
23.0
32.0
35.0
33.0
33.0
33.0
27.0
19.0
15.0
23.0
71.0
139.0
194.0
235.0
263.0
253.0
247.0
235.0
211.0
177.0
135.0
71.0
15.0
0.0
0.0
0.0
0.0
0.0
0.0
3.0
19.0
17.0
31.0
35.0
35.0
35.0
35.0
23.0
23.0
19.0
19.0
43.0
111.0
183.0
235.0
271.0
263.0
247.0
235.0
215.0
195.0
151.0
98.0
35.0
0.0
0.0
0.0
0.0
0.0
0.0
3.0
11.0
17.0
19.0
33.0
33.0
33.0
32.0
27.0
23.0
15.0
15.0
23.0
87.0
159.0
211.0
259.0
271.0
251.0
239.0
225.0
207.0
167.0
119.0
64.0
1.0
0.0
0.0
0.0
0.0
0.0
0.0
3.0
15.0
23.0
32.0
32.0
39.0
39.0
34.0
31.0
23.0
19.0
23.0
71.0
143.0
195.0
243.0
279.0
271.0
245.0
231.0
215.0
179.0
139.0
71.0
15.0
0.0
0.0
0.0
0.0
0.0
0.0
3.0
21.0
23.0
32.0
33.0
35.0
35.0
32.0
23.0
21.0
19.0
17.0
33.0
107.0
175.0
231.0
271.0
275.0
256.0
225.0
211.0
193.0
147.0
89.0
33.0
0.0
0.0
0.0
0.0
0.0
0.0
1.0
15.0
19.0
19.0
33.0
23.0
33.0
33.0
23.0
19.0
11.0
7.0
23.0
79.0
151.0
203.0
256.0
275.0
247.0
243.0
231.0
209.0
175.0
123.0
71.0
7.0
0.0
0.0
0.0
0.0
0.0
0.0
7.0
19.0
23.0
27.0
31.0
35.0
38.0
33.0
23.0
17.0
15.0
19.0
53.0
129.0
192.0
231.0
279.0
267.0
247.0
235.0
215.0
187.0
147.0
87.0
19.0
0.0
0.0
0.0
0.0
0.0
0.0
3.0
19.0
23.0
23.0
33.0
39.0
33.0
33.0
32.0
23.0
19.0
19.0
34.0
107.0
177.0
231.0
275.0
286.0
259.0
235.0
219.0
195.0
151.0
99.0
39.0
0.0
0.0
0.0
0.0
0.0
0.0
0.0
5.0
19.0
23.0
31.0
35.0
37.0
33.0
27.0
23.0
19.0
11.0
23.0
75.0
149.0
205.0
257.0
275.0
259.0
231.0
219.0
199.0
167.0
115.0
65.0
7.0
0.0
0.0
0.0
0.0
0.0
0.0
7.0
23.0
23.0
27.0
33.0
33.0
33.0
23.0
23.0
19.0
11.0
19.0
47.0
123.0
193.0
245.0
289.0
281.0
263.0
235.0
211.0
192.0
147.0
87.0
21.0
0.0
0.0
0.0
0.0
0.0
0.0
0.0
19.0
19.0
23.0
27.0
31.0
35.0
32.0
23.0
23.0
15.0
15.0
23.0
97.0
167.0
224.0
267.0
279.0
263.0
231.0
219.0
199.0
163.0
103.0
51.0
0.0
0.0
0.0
0.0
0.0
0.0
0.0
11.0
15.0
23.0
32.0
32.0
35.0
39.0
31.0
19.0
19.0
11.0
23.0
67.0
143.0
199.0
251.0
289.0
279.0
251.0
235.0
219.0
183.0
143.0
71.0
11.0
0.0
0.0
0.0
0.0
0.0
0.0
7.0
23.0
19.0
27.0
35.0
37.0
35.0
32.0
23.0
17.0
15.0
15.0
35.0
113.0
183.0
241.0
283.0
289.0
263.0
239.0
215.0
193.0
155.0
96.0
33.0
0.0
0.0
0.0
0.0
0.0
0.0
0.0
11.0
15.0
23.0
27.0
35.0
33.0
33.0
21.0
19.0
15.0
11.0
27.0
87.0
161.0
219.0
267.0
279.0
263.0
239.0
215.0
199.0
167.0
115.0
55.0
0.0
0.0
0.0
0.0
0.0
0.0
0.0
7.0
11.0
23.0
23.0
30.0
35.0
35.0
32.0
19.0
15.0
7.0
15.0
55.0
134.0
187.0
241.0
279.0
271.0
251.0
239.0
224.0
193.0
143.0
83.0
23.0
0.0
0.0
0.0
0.0
0.0
0.0
3.0
19.0
17.0
32.0
32.0
35.0
35.0
27.0
23.0
19.0
15.0
17.0
32.0
103.0
177.0
235.0
279.0
283.0
263.0
239.0
215.0
195.0
160.0
99.0
39.0
0.0
0.0
0.0
0.0
0.0
0.0
0.0
15.0
19.0
19.0
23.0
31.0
37.0
35.0
27.0
23.0
15.0
13.0
23.0
77.0
151.0
215.0
263.0
279.0
259.0
239.0
225.0
203.0
167.0
119.0
65.0
1.0
0.0
0.0
0.0
0.0
0.0
0.0
7.0
19.0
19.0
31.0
33.0
35.0
33.0
27.0
23.0
21.0
15.0
19.0
49.0
128.0
192.0
239.0
279.0
275.0
255.0
247.0
225.0
195.0
162.0
87.0
23.0
0.0
0.0
0.0
0.0
0.0
0.0
1.0
19.0
19.0
19.0
32.0
33.0
33.0
32.0
23.0
15.0
15.0
7.0
27.0
96.0
167.0
225.0
279.0
288.0
263.0
239.0
219.0
203.0
163.0
111.0
47.0
0.0
0.0
0.0
0.0
0.0
0.0
0.0
7.0
17.0
23.0
29.0
32.0
33.0
33.0
23.0
23.0
15.0
7.0
23.0
71.0
143.0
199.0
258.0
279.0
263.0
243.0
229.0
207.0
173.0
131.0
67.0
3.0
0.0
0.0
0.0
0.0
0.0
0.0
7.0
19.0
23.0
33.0
35.0
33.0
35.0
32.0
19.0
17.0
15.0
11.0
35.0
115.0
193.0
245.0
288.0
288.0
271.0
239.0
224.0
195.0
151.0
97.0
33.0
0.0
0.0
0.0
0.0
0.0
0.0
1.0
11.0
19.0
27.0
35.0
35.0
33.0
35.0
31.0
19.0
15.0
15.0
23.0
87.0
163.0
215.0
271.0
289.0
263.0
241.0
225.0
203.0
171.0
119.0
55.0
0.0
0.0
0.0
0.0
0.0
0.0
0.0
7.0
19.0
23.0
32.0
33.0
35.0
33.0
27.0
19.0
15.0
11.0
15.0
64.0
135.0
193.0
247.0
288.0
279.0
255.0
239.0
227.0
193.0
145.0
81.0
15.0
0.0
0.0
0.0
0.0
0.0
0.0
5.0
23.0
19.0
32.0
32.0
32.0
35.0
32.0
23.0
19.0
15.0
15.0
27.0
103.0
179.0
239.0
283.0
289.0
267.0
231.0
224.0
195.0
161.0
102.0
39.0
0.0
0.0
0.0
0.0
0.0
0.0
1.0
11.0
17.0
19.0
31.0
27.0
33.0
32.0
29.0
23.0
15.0
11.0
23.0
83.0
159.0
211.0
263.0
291.0
271.0
241.0
231.0
207.0
175.0
129.0
59.0
0.0
0.0
0.0
0.0
0.0
0.0
0.0
7.0
19.0
23.0
32.0
33.0
35.0
33.0
32.0
23.0
21.0
153.0
33.0
33.0
32.0
31.0
23.0
15.0
15.0
23.0
87.0
163.0
223.0
273.0
289.0
263.0
246.0
227.0
209.0
175.0
119.0
59.0
1.0
0.0
0.0
0.0
0.0
0.0
0.0
7.0
23.0
23.0
32.0
33.0
35.0
35.0
31.0
19.0
11.0
3.0
15.0
51.0
129.0
193.0
247.0
289.0
279.0
259.0
227.0
207.0
177.0
135.0
71.0
3.0
0.0
0.0
0.0
0.0
0.0
0.0
3.0
19.0
19.0
27.0
33.0
33.0
35.0
32.0
23.0
19.0
11.0
15.0
29.0
107.0
177.0
235.0
279.0
291.0
271.0
243.0
225.0
203.0
161.0
107.0
43.0
0.0
0.0
0.0
0.0
0.0
0.0
7.0
11.0
19.0
23.0
32.0
33.0
35.0
33.0
31.0
19.0
15.0
11.0
19.0
79.0
151.0
209.0
263.0
279.0
263.0
235.0
227.0
207.0
167.0
128.0
55.0
0.0
0.0
0.0
0.0
0.0
0.0
0.0
11.0
19.0
19.0
32.0
32.0
35.0
35.0
33.0
23.0
17.0
15.0
17.0
43.0
129.0
181.0
235.0
275.0
279.0
251.0
241.0
225.0
199.0
159.0
96.0
31.0
0.0
0.0
0.0
0.0
0.0
0.0
3.0
19.0
23.0
31.0
33.0
35.0
35.0
35.0
27.0
19.0
17.0
11.0
23.0
95.0
167.0
225.0
273.0
286.0
263.0
245.0
227.0
203.0
163.0
111.0
54.0
0.0
0.0
0.0
0.0
0.0
0.0
0.0
11.0
17.0
19.0
23.0
33.0
33.0
33.0
27.0
17.0
11.0
11.0
17.0
65.0
143.0
199.0
251.0
295.0
275.0
259.0
227.0
207.0
171.0
131.0
64.0
0.0
0.0
0.0
0.0
0.0
0.0
0.0
5.0
19.0
22.0
33.0
35.0
32.0
35.0
32.0
23.0
19.0
11.0
15.0
34.0
115.0
183.0
243.0
288.0
295.0
267.0
243.0
225.0
199.0
159.0
97.0
35.0
0.0
0.0
0.0
0.0
0.0
0.0
7.0
11.0
23.0
23.0
31.0
35.0
33.0
32.0
32.0
21.0
15.0
7.0
23.0
83.0
161.0
215.0
267.0
283.0
263.0
239.0
224.0
207.0
167.0
115.0
64.0
0.0
0.0
0.0
0.0
0.0
0.0
0.0
11.0
19.0
23.0
32.0
33.0
33.0
33.0
32.0
19.0
17.0
9.0
19.0
55.0
131.0
195.0
247.0
289.0
275.0
259.0
235.0
205.0
183.0
135.0
71.0
7.0
0.0
0.0
0.0
0.0
0.0
0.0
7.0
19.0
23.0
32.0
35.0
35.0
33.0
35.0
23.0
23.0
15.0
11.0
23.0
99.0
175.0
231.0
275.0
288.0
263.0
235.0
227.0
197.0
163.0
107.0
43.0
0.0
0.0
0.0
0.0
0.0
0.0
1.0
14.0
17.0
33.0
27.0
32.0
35.0
33.0
23.0
22.0
15.0
11.0
19.0
69.0
151.0
207.0
263.0
279.0
267.0
241.0
227.0
207.0
175.0
128.0
55.0
0.0
0.0
0.0
0.0
0.0
0.0
0.0
7.0
23.0
23.0
33.0
33.0
35.0
35.0
33.0
23.0
17.0
15.0
15.0
47.0
123.0
195.0
255.0
295.0
295.0
267.0
247.0
224.0
195.0
158.0
91.0
31.0
0.0
0.0
0.0
0.0
0.0
0.0
3.0
19.0
15.0
31.0
33.0
33.0
35.0
35.0
23.0
17.0
11.0
11.0
23.0
87.0
166.0
225.0
275.0
289.0
263.0
235.0
226.0
199.0
167.0
113.0
51.0
0.0
0.0
0.0
0.0
0.0
0.0
0.0
15.0
23.0
31.0
33.0
33.0
33.0
35.0
32.0
19.0
15.0
15.0
23.0
65.0
143.0
199.0
255.0
291.0
287.0
261.0
231.0
211.0
179.0
131.0
67.0
7.0
0.0
0.0
0.0
0.0
0.0
0.0
3.0
23.0
19.0
27.0
33.0
35.0
33.0
32.0
19.0
11.0
15.0
15.0
31.0
107.0
183.0
239.0
283.0
283.0
267.0
235.0
219.0
199.0
160.0
99.0
39.0
0.0
0.0
0.0
0.0
0.0
0.0
3.0
11.0
17.0
32.0
33.0
33.0
33.0
33.0
27.0
21.0
17.0
11.0
17.0
73.0
149.0
211.0
263.0
279.0
263.0
235.0
224.0
207.0
167.0
119.0
64.0
1.0
0.0
0.0
0.0
0.0
0.0
0.0
11.0
17.0
23.0
33.0
33.0
35.0
35.0
32.0
23.0
19.0
7.0
11.0
51.0
128.0
183.0
235.0
283.0
275.0
257.0
225.0
211.0
179.0
139.0
75.0
11.0
0.0
0.0
0.0
0.0
0.0
0.0
3.0
19.0
19.0
30.0
32.0
35.0
33.0
35.0
23.0
19.0
11.0
7.0
23.0
97.0
171.0
224.0
271.0
281.0
259.0
239.0
219.0
195.0
160.0
103.0
43.0
0.0
0.0
0.0
0.0
0.0
0.0
1.0
9.0
15.0
25.0
31.0
33.0
33.0
33.0
32.0
17.0
15.0
11.0
17.0
71.0
143.0
203.0
253.0
289.0
275.0
255.0
237.0
225.0
183.0
143.0
75.0
7.0
0.0
0.0
0.0
0.0
0.0
0.0
3.0
19.0
23.0
32.0
32.0
33.0
33.0
33.0
21.0
19.0
11.0
15.0
33.0
119.0
187.0
247.0
289.0
290.0
263.0
235.0
227.0
193.0
160.0
97.0
33.0
0.0
0.0
0.0
0.0
0.0
0.0
2.0
15.0
23.0
31.0
35.0
35.0
35.0
33.0
23.0
23.0
23.0
11.0
23.0
87.0
159.0
215.0
267.0
281.0
267.0
239.0
225.0
207.0
167.0
115.0
64.0
0.0
0.0
0.0
0.0
0.0
0.0
0.0
5.0
19.0
19.0
31.0
35.0
35.0
33.0
32.0
21.0
19.0
11.0
23.0
59.0
135.0
195.0
247.0
294.0
279.0
257.0
229.0
211.0
179.0
135.0
71.0
7.0
0.0
0.0
0.0
0.0
0.0
0.0
3.0
15.0
23.0
32.0
35.0
35.0
33.0
33.0
23.0
21.0
11.0
11.0
23.0
99.0
179.0
237.0
277.0
288.0
267.0
243.0
221.0
199.0
161.0
107.0
39.0
0.0
0.0
0.0
0.0
0.0
0.0
3.0
15.0
19.0
27.0
32.0
35.0
35.0
35.0
23.0
17.0
11.0
7.0
19.0
71.0
145.0
203.0
259.0
277.0
259.0
239.0
224.0
209.0
167.0
123.0
67.0
1.0
0.0
0.0
0.0
0.0
0.0
0.0
5.0
23.0
19.0
32.0
32.0
35.0
35.0
33.0
19.0
15.0
15.0
13.0
43.0
119.0
192.0
247.0
291.0
288.0
267.0
239.0
224.0
198.0
149.0
91.0
19.0
0.0
0.0
0.0
0.0
0.0
0.0
1.0
17.0
17.0
31.0
32.0
33.0
39.0
34.0
23.0
19.0
15.0
11.0
23.0
91.0
167.0
225.0
275.0
287.0
263.0
241.0
227.0
203.0
167.0
111.0
55.0
0.0
0.0
0.0
0.0
0.0
0.0
0.0
11.0
22.0
27.0
35.0
33.0
37.0
35.0
31.0
19.0
13.0
11.0
19.0
64.0
135.0
195.0
251.0
288.0
279.0
257.0
225.0
203.0
171.0
131.0
65.0
3.0
0.0
0.0
0.0
0.0
0.0
0.0
5.0
23.0
23.0
35.0
33.0
35.0
35.0
33.0
27.0
19.0
15.0
11.0
33.0
115.0
183.0
247.0
288.0
288.0
263.0
243.0
223.0
199.0
161.0
99.0
35.0
0.0
0.0
0.0
0.0
0.0
0.0
1.0
15.0
23.0
27.0
33.0
35.0
39.0
39.0
27.0
23.0
11.0
11.0
21.0
77.0
151.0
215.0
267.0
285.0
263.0
239.0
222.0
203.0
171.0
119.0
64.0
1.0
0.0
0.0
0.0
0.0
0.0
0.0
7.0
23.0
19.0
32.0
35.0
39.0
37.0
27.0
23.0
17.0
7.0
17.0
47.0
131.0
187.0
243.0
279.0
279.0
257.0
227.0
199.0
177.0
135.0
71.0
14.0
0.0
0.0
0.0
0.0
0.0
0.0
7.0
19.0
23.0
27.0
35.0
35.0
35.0
35.0
32.0
23.0
15.0
17.0
27.0
99.0
175.0
231.0
279.0
289.0
271.0
247.0
225.0
207.0
163.0
111.0
47.0
0.0
0.0
0.0
0.0
0.0
0.0
3.0
13.0
17.0
30.0
34.0
34.0
33.0
35.0
31.0
23.0
17.0
11.0
21.0
71.0
147.0
207.0
263.0
275.0
267.0
243.0
229.0
207.0
169.0
131.0
64.0
0.0
0.0
0.0
0.0
0.0
0.0
0.0
11.0
23.0
27.0
35.0
35.0
37.0
35.0
33.0
27.0
23.0
15.0
15.0
43.0
119.0
193.0
247.0
289.0
291.0
263.0
239.0
219.0
199.0
151.0
89.0
33.0
0.0
0.0
0.0
0.0
0.0
0.0
7.0
17.0
19.0
31.0
34.0
33.0
35.0
32.0
30.0
23.0
15.0
11.0
23.0
89.0
167.0
215.0
269.0
289.0
261.0
243.0
219.0
199.0
167.0
111.0
51.0
0.0
0.0
0.0
0.0
0.0
0.0
0.0
11.0
23.0
23.0
31.0
33.0
33.0
35.0
32.0
23.0
19.0
11.0
17.0
64.0
135.0
199.0
251.0
288.0
275.0
259.0
227.0
207.0
171.0
135.0
67.0
1.0
0.0
0.0
0.0
0.0
0.0
0.0
3.0
23.0
23.0
31.0
35.0
35.0
33.0
35.0
23.0
19.0
15.0
15.0
33.0
111.0
187.0
237.0
283.0
295.0
263.0
241.0
224.0
199.0
163.0
99.0
39.0
0.0
0.0
0.0
0.0
0.0
0.0
0.0
7.0
19.0
27.0
35.0
35.0
35.0
35.0
29.0
23.0
15.0
15.0
23.0
81.0
153.0
215.0
263.0
279.0
271.0
243.0
225.0
207.0
167.0
119.0
64.0
3.0
0.0
0.0
0.0
0.0
0.0
0.0
7.0
19.0
27.0
30.0
35.0
33.0
35.0
33.0
23.0
19.0
11.0
15.0
51.0
128.0
192.0
243.0
279.0
279.0
257.0
231.0
213.0
183.0
143.0
79.0
11.0
0.0
0.0
0.0
0.0
0.0
0.0
7.0
17.0
23.0
32.0
39.0
35.0
35.0
35.0
31.0
21.0
11.0
9.0
27.0
99.0
171.0
225.0
279.0
288.0
263.0
241.0
223.0
199.0
163.0
107.0
47.0
0.0
0.0
0.0
0.0
0.0
0.0
0.0
15.0
22.0
29.0
35.0
39.0
35.0
37.0
30.0
23.0
19.0
15.0
19.0
67.0
143.0
203.0
256.0
279.0
266.0
239.0
227.0
209.0
175.0
129.0
65.0
3.0
0.0
0.0
0.0
0.0
0.0
0.0
7.0
19.0
19.0
23.0
35.0
35.0
35.0
34.0
31.0
17.0
11.0
11.0
37.0
119.0
192.0
243.0
291.0
289.0
267.0
235.0
219.0
195.0
151.0
97.0
35.0
0.0
0.0
0.0
0.0
0.0
0.0
1.0
17.0
23.0
27.0
33.0
33.0
39.0
39.0
31.0
19.0
15.0
7.0
23.0
87.0
160.0
223.0
267.0
289.0
263.0
239.0
221.0
203.0
167.0
119.0
64.0
1.0
0.0
0.0
0.0
0.0
0.0
0.0
11.0
21.0
19.0
23.0
35.0
33.0
33.0
32.0
19.0
19.0
11.0
15.0
55.0
131.0
195.0
247.0
289.0
279.0
255.0
239.0
227.0
195.0
147.0
83.0
19.0
0.0
0.0
0.0
0.0
0.0
0.0
7.0
22.0
23.0
33.0
33.0
35.0
35.0
32.0
27.0
19.0
15.0
11.0
27.0
99.0
175.0
235.0
279.0
287.0
267.0
243.0
225.0
199.0
161.0
103.0
39.0
0.0
0.0
0.0
0.0
0.0
0.0
1.0
13.0
19.0
23.0
32.0
35.0
33.0
33.0
31.0
23.0
15.0
11.0
23.0
79.0
147.0
211.0
259.0
283.0
263.0
241.0
224.0
207.0
174.0
123.0
65.0
3.0
0.0
0.0
0.0
0.0
0.0
0.0
7.0
23.0
23.0
27.0
33.0
35.0
35.0
32.0
23.0
15.0
15.0
15.0
47.0
123.0
199.0
255.0
295.0
289.0
263.0
241.0
223.0
195.0
151.0
87.0
23.0
0.0
0.0
0.0
0.0
0.0
0.0
7.0
17.0
23.0
32.0
35.0
37.0
33.0
35.0
27.0
19.0
15.0
15.0
27.0
99.0
167.0
225.0
275.0
287.0
271.0
243.0
227.0
203.0
167.0
115.0
51.0
0.0
0.0
0.0
0.0
0.0
0.0
0.0
3.0
17.0
19.0
23.0
33.0
35.0
33.0
23.0
19.0
11.0
3.0
17.0
65.0
135.0
197.0
251.0
291.0
275.0
251.0
239.0
219.0
183.0
139.0
71.0
15.0
0.0
0.0
0.0
0.0
0.0
0.0
7.0
23.0
23.0
31.0
32.0
35.0
39.0
33.0
25.0
19.0
15.0
17.0
33.0
115.0
192.0
247.0
288.0
291.0
267.0
241.0
223.0
195.0
158.0
99.0
35.0
0.0
0.0
0.0
0.0
0.0
0.0
3.0
15.0
19.0
27.0
33.0
33.0
39.0
33.0
27.0
23.0
15.0
11.0
23.0
83.0
160.0
219.0
267.0
279.0
267.0
235.0
227.0
207.0
167.0
119.0
55.0
0.0
0.0
0.0
0.0
0.0
0.0
0.0
7.0
21.0
23.0
31.0
32.0
35.0
33.0
32.0
19.0
15.0
15.0
15.0
55.0
131.0
195.0
247.0
283.0
279.0
257.0
224.0
215.0
177.0
135.0
67.0
3.0
0.0
0.0
0.0
0.0
0.0
0.0
3.0
19.0
23.0
23.0
33.0
33.0
39.0
32.0
23.0
21.0
15.0
11.0
27.0
103.0
178.0
239.0
279.0
289.0
263.0
235.0
215.0
195.0
161.0
103.0
39.0
0.0
0.0
0.0
0.0
0.0
0.0
0.0
11.0
19.0
23.0
31.0
35.0
35.0
33.0
32.0
19.0
15.0
11.0
23.0
79.0
155.0
213.0
263.0
287.0
259.0
241.0
227.0
207.0
175.0
129.0
55.0
0.0
0.0
0.0
0.0
0.0
0.0
0.0
7.0
19.0
27.0
32.0
34.0
39.0
39.0
35.0
23.0
19.0
11.0
15.0
43.0
119.0
195.0
247.0
291.0
289.0
263.0
231.0
215.0
192.0
147.0
87.0
19.0
0.0
0.0
0.0
0.0
0.0
0.0
1.0
19.0
19.0
32.0
35.0
35.0
39.0
33.0
23.0
23.0
15.0
15.0
29.0
95.0
167.0
231.0
273.0
291.0
263.0
235.0
227.0
199.0
163.0
107.0
51.0
0.0
0.0
0.0
0.0
0.0
0.0
0.0
11.0
19.0
23.0
33.0
35.0
35.0
33.0
32.0
23.0
15.0
11.0
23.0
71.0
143.0
199.0
259.0
279.0
261.0
247.0
227.0
207.0
177.0
131.0
67.0
1.0
0.0
0.0
0.0
0.0
0.0
0.0
3.0
19.0
23.0
31.0
33.0
33.0
33.0
32.0
23.0
19.0
11.0
15.0
33.0
113.0
187.0
243.0
289.0
291.0
271.0
243.0
224.0
205.0
155.0
97.0
33.0
0.0
0.0
0.0
0.0
0.0
0.0
7.0
15.0
19.0
27.0
35.0
32.0
33.0
33.0
23.0
19.0
15.0
15.0
23.0
83.0
163.0
215.0
267.0
288.0
263.0
239.0
225.0
203.0
171.0
115.0
55.0
0.0
0.0
0.0
0.0
0.0
0.0
0.0
14.0
23.0
23.0
35.0
33.0
33.0
33.0
32.0
23.0
17.0
7.0
21.0
65.0
135.0
194.0
247.0
289.0
279.0
259.0
229.0
207.0
179.0
139.0
71.0
7.0
0.0
0.0
0.0
0.0
0.0
0.0
7.0
17.0
23.0
27.0
35.0
35.0
35.0
35.0
27.0
15.0
11.0
11.0
31.0
103.0
175.0
235.0
283.0
287.0
267.0
241.0
223.0
199.0
160.0
107.0
39.0
0.0
0.0
0.0
0.0
0.0
0.0
0.0
15.0
17.0
31.0
31.0
31.0
35.0
35.0
27.0
23.0
15.0
13.0
23.0
79.0
151.0
211.0
263.0
283.0
267.0
243.0
231.0
209.0
175.0
128.0
55.0
0.0
0.0
0.0
0.0
0.0
0.0
0.0
7.0
19.0
17.0
27.0
27.0
33.0
33.0
34.0
23.0
19.0
11.0
11.0
47.0
129.0
183.0
235.0
279.0
275.0
255.0
243.0
227.0
199.0
155.0
96.0
32.0
0.0
0.0
0.0
0.0
0.0
0.0
3.0
15.0
19.0
31.0
35.0
39.0
35.0
35.0
31.0
23.0
15.0
15.0
31.0
99.0
167.0
231.0
275.0
283.0
267.0
247.0
224.0
203.0
163.0
113.0
49.0
0.0
0.0
0.0
0.0
0.0
0.0
0.0
11.0
17.0
23.0
31.0
33.0
35.0
35.0
33.0
19.0
13.0
11.0
19.0
67.0
143.0
199.0
253.0
288.0
279.0
259.0
225.0
203.0
175.0
129.0
64.0
1.0
0.0
0.0
0.0
0.0
0.0
0.0
7.0
19.0
19.0
30.0
39.0
39.0
39.0
38.0
27.0
19.0
17.0
17.0
39.0
113.0
192.0
247.0
291.0
293.0
271.0
243.0
229.0
199.0
160.0
99.0
35.0
0.0
0.0
0.0
0.0
0.0
0.0
3.0
15.0
19.0
31.0
35.0
32.0
35.0
35.0
31.0
19.0
11.0
11.0
23.0
87.0
163.0
215.0
267.0
283.0
263.0
235.0
224.0
207.0
167.0
119.0
59.0
0.0
0.0
0.0
0.0
0.0
0.0
0.0
7.0
19.0
23.0
31.0
33.0
35.0
37.0
29.0
23.0
15.0
11.0
19.0
55.0
129.0
193.0
247.0
283.0
273.0
256.0
227.0
209.0
177.0
133.0
71.0
3.0
0.0
0.0
0.0
0.0
0.0
0.0
3.0
17.0
21.0
32.0
34.0
39.0
35.0
33.0
23.0
17.0
11.0
15.0
27.0
103.0
177.0
235.0
287.0
289.0
269.0
243.0
225.0
203.0
163.0
111.0
41.0
0.0
0.0
0.0
0.0
0.0
0.0
1.0
11.0
23.0
29.0
35.0
33.0
33.0
33.0
27.0
23.0
15.0
7.0
23.0
75.0
151.0
203.0
259.0
279.0
263.0
241.0
227.0
207.0
169.0
123.0
67.0
3.0
0.0
0.0
0.0
0.0
0.0
0.0
15.0
23.0
23.0
33.0
39.0
35.0
35.0
35.0
23.0
19.0
14.0
17.0
47.0
119.0
199.0
251.0
289.0
291.0
267.0
239.0
219.0
192.0
151.0
83.0
23.0
0.0
0.0
0.0
0.0
0.0
0.0
3.0
21.0
19.0
32.0
35.0
39.0
35.0
35.0
23.0
17.0
15.0
11.0
27.0
97.0
167.0
231.0
273.0
291.0
263.0
235.0
227.0
203.0
163.0
107.0
49.0
0.0
0.0
0.0
0.0
0.0
0.0
0.0
15.0
19.0
27.0
34.0
35.0
39.0
35.0
27.0
23.0
13.0
7.0
23.0
70.0
143.0
203.0
259.0
275.0
263.0
243.0
229.0
211.0
175.0
129.0
67.0
1.0
0.0
0.0
0.0
0.0
0.0
0.0
7.0
21.0
17.0
32.0
33.0
35.0
33.0
32.0
27.0
15.0
15.0
15.0
35.0
119.0
183.0
243.0
289.0
289.0
271.0
243.0
224.0
193.0
155.0
96.0
32.0
0.0
0.0
0.0
0.0
0.0
0.0
0.0
15.0
23.0
23.0
31.0
35.0
39.0
34.0
27.0
19.0
15.0
11.0
23.0
87.0
159.0
225.0
271.0
286.0
263.0
247.0
225.0
209.0
167.0
123.0
55.0
0.0
0.0
0.0
0.0
0.0
0.0
0.0
13.0
19.0
23.0
32.0
35.0
38.0
35.0
27.0
19.0
15.0
7.0
23.0
55.0
135.0
193.0
247.0
288.0
279.0
255.0
239.0
225.0
195.0
151.0
83.0
19.0
0.0
0.0
0.0
0.0
0.0
0.0
7.0
23.0
19.0
31.0
33.0
33.0
35.0
35.0
23.0
23.0
15.0
15.0
27.0
107.0
183.0
239.0
279.0
291.0
269.0
243.0
224.0
203.0
161.0
107.0
39.0
0.0
0.0
0.0
0.0
0.0
0.0
0.0
17.0
19.0
23.0
35.0
35.0
35.0
33.0
27.0
19.0
15.0
11.0
23.0
75.0
151.0
211.0
267.0
279.0
263.0
243.0
225.0
207.0
167.0
119.0
65.0
0.0
0.0
0.0
0.0
0.0
0.0
0.0
7.0
23.0
19.0
31.0
33.0
35.0
35.0
33.0
23.0
15.0
9.0
15.0
47.0
125.0
199.0
255.0
291.0
291.0
267.0
239.0
217.0
195.0
147.0
87.0
23.0
0.0
0.0
0.0
0.0
0.0
0.0
7.0
23.0
19.0
33.0
33.0
35.0
35.0
33.0
23.0
17.0
11.0
15.0
27.0
99.0
163.0
227.0
275.0
