## File generated by myo_cap software 
## Available from github.com/ddantas/myo_cap 
## Timestamp: 2019-08-14_19-13-24 
##  
## EMG capture settings 
##  
# sampleRate: 2000 
# channelsPerBoard: 4 
# nBoards: 1 
# bitsPerSample: 12 
# ch1;ch2;ch3;ch4
1695;1564;1728;1752
1752;1599;1741;1552
1744;1552;1708;1560
1784;1566;1757;1560
1781;1582;1728;1576
1791;1560;1757;1560
1764;1595;1749;1589
1776;1556;1748;1599
1765;1591;1769;1613
1758;1599;1729;1568
1766;1586;1713;1599
1776;1572;1728;1595
1760;1583;1728;1572
1770;1576;1728;1585
1762;1573;1736;1588
1756;1582;1752;1568
1744;1585;1771;1592
1752;1576;1728;1552
1752;1560;1712;1576
1783;1613;1714;1568
1744;1560;1716;1598
1787;1561;1712;1552
1736;1556;1712;1560
1720;1560;1757;1627
1783;1560;1759;1566
1748;1577;1755;1564
1736;1556;1728;1609
1783;1611;1767;1613
1771;1560;1775;1615
1764;1560;1775;1580
1724;1552;1704;1567
1759;1589;1734;1615
1775;1599;1759;1612
1791;1601;1759;1615
1783;1560;1740;1583
1729;1587;1759;1623
1767;1564;1759;1615
1753;1560;1759;1599
1743;1556;1720;1602
1773;1560;1733;1599
1736;1592;1771;1592
1764;1576;1736;1615
1787;1560;1728;1591
1768;1607;1783;1611
1775;1607;1734;1569
1774;1556;1771;1564
1744;1594;1765;1576
1736;1580;1728;1605
1767;1568;1722;1599
1728;1599;1720;1576
1746;1599;1744;1568
1744;1607;1759;1568
1771;1573;1716;1560
1752;1552;1720;1600
1783;1595;1720;1576
1767;1613;1742;1556
1732;1592;1775;1592
1752;1556;1718;1560
1720;1552;1720;1597
1728;1599;1714;1564
1775;1587;1716;1607
1720;1577;1775;1599
1751;1568;1764;1599
1736;1591;1755;1568
1712;1552;1755;1596
1767;1560;1740;1607
1775;1600;1767;1613
1742;1568;1755;1560
1746;1607;1751;1572
1712;1584;1767;1568
1728;1560;1728;1596
1759;1584;1771;1621
1775;1647;1759;1596
1759;1613;1716;1568
1775;1615;1759;1609
1779;1611;1783;1615
1757;1580;1744;1584
1744;1578;1728;1581
1757;1588;1740;1588
1748;1591;1743;1592
1744;1585;1704;1564
1728;1584;1773;1591
1740;1585;1728;1584
1740;1584;1746;1585
1748;1568;1714;1592
1747;1597;1712;1611
1739;1595;1752;1564
1716;1607;1759;1591
1720;1552;1744;1623
1771;1572;1751;1568
1720;1599;1712;1607
1716;1572;1742;1599
1720;1607;1720;1560
1732;1611;1728;1611
1712;1572;1759;1611
1747;1611;1767;1597
1724;1576;1739;1577
1716;1576;1755;1564
1755;1560;1757;1615
1724;1552;1728;1615
1727;1572;1757;1583
1712;1605;1759;1583
1704;1560;1740;1623
1712;1595;1740;1568
1740;1572;1746;1584
1720;1569;1733;1605
1704;1599;1714;1572
1775;1607;1759;1599
1751;1552;1704;1566
1721;1552;1720;1588
1765;1584;1753;1564
1712;1576;1759;1560
1728;1572;1759;1615
1759;1597;1759;1564
1728;1564;1751;1599
1720;1556;1756;1599
1712;1568;1775;1576
1728;1552;1704;1552
1716;1556;1720;1623
1754;1556;1740;1615
1759;1568;1714;1560
1728;1607;1712;1560
1720;1588;1757;1623
1759;1611;1759;1615
1775;1564;1740;1599
1712;1568;1763;1615
1735;1556;1708;1584
1759;1599;1725;1568
1727;1590;1708;1576
1720;1609;1759;1611
1759;1572;1716;1568
1728;1615;1759;1575
1708;1568;1716;1592
1759;1611;1767;1623
1749;1560;1708;1566
1716;1560;1744;1611
1709;1588;1771;1592
1732;1599;1759;1599
1704;1584;1735;1560
1712;1607;1721;1552
1756;1560;1712;1568
1754;1580;1759;1615
1751;1572;1775;1615
1724;1572;1759;1567
1740;1560;1752;1619
1771;1599;1743;1561
1728;1572;1726;1572
1767;1607;1771;1615
1757;1576;1739;1560
1732;1586;1759;1588
1720;1556;1716;1592
1756;1598;1765;1615
1759;1568;1720;1595
1751;1560;1759;1560
1728;1560;1716;1560
1720;1560;1748;1604
1736;1576;1759;1607
1744;1552;1716;1560
1732;1568;1767;1615
1734;1570;1708;1608
1728;1560;1704;1560
1728;1576;1757;1611
1705;1553;1712;1568
1759;1597;1753;1631
1742;1590;1749;1589
1749;1588;1741;1586
1749;1576;1743;1585
1756;1580;1740;1576
1720;1597;1732;1564
1765;1595;1720;1568
1740;1560;1708;1572
1749;1599;1716;1599
1728;1576;1759;1572
1720;1564;1700;1568
1708;1572;1712;1591
1720;1564;1765;1582
1720;1556;1716;1607
1781;1613;1759;1560
1748;1568;1712;1576
1728;1568;1757;1629
1785;1576;1775;1599
1728;1599;1716;1597
1732;1596;1807;1615
1775;1595;1728;1560
1720;1552;1708;1586
1720;1560;1791;1564
1728;1556;1736;1556
1733;1581;1716;1560
1728;1580;1767;1627
1783;1615;1791;1591
1728;1568;1771;1627
1771;1615;1775;1627
1763;1596;1759;1599
1746;1583;1733;1556
1736;1560;1748;1592
1744;1603;1750;1557
1720;1568;1712;1572
1740;1599;1725;1568
1771;1593;1767;1599
1716;1568;1739;1567
1728;1568;1752;1615
1775;1599;1712;1599
1728;1599;1743;1615
1771;1613;1722;1560
1732;1560;1720;1584
1748;1568;1761;1607
1737;1568;1732;1588
1734;1552;1716;1568
1775;1560;1736;1595
1736;1599;1722;1576
1775;1568;1748;1615
1783;1599;1720;1568
1752;1560;1728;1596
1772;1615;1759;1599
1736;1568;1728;1602
1775;1588;1759;1556
1756;1613;1714;1560
1732;1595;1732;1623
1738;1599;1741;1564
1759;1581;1712;1588
1767;1576;1712;1568
1728;1552;1720;1597
1728;1560;1767;1613
1771;1611;1714;1560
1716;1568;1755;1599
1720;1568;1775;1591
1728;1584;1751;1583
1732;1556;1720;1576
1744;1580;1775;1615
1759;1615;1751;1599
1771;1566;1728;1576
1772;1587;1714;1552
1712;1568;1736;1568
1728;1572;1759;1615
1757;1572;1767;1572
1716;1552;1704;1576
1759;1561;1716;1572
1745;1599;1740;1556
1716;1568;1740;1607
1720;1584;1716;1607
1736;1593;1729;1564
1712;1573;1716;1600
1751;1591;1740;1580
1740;1576;1733;1584
1758;1560;1767;1589
1732;1560;1736;1591
1730;1590;1783;1615
1791;1597;1681;1560
1749;1556;1712;1580
1781;1595;1758;1599
1728;1599;1716;1607
1756;1574;1712;1568
1756;1584;1767;1621
1783;1599;1724;1556
1728;1568;1728;1598
1771;1578;1725;1599
1751;1588;1712;1589
1712;1568;1716;1564
1728;1560;1716;1560
1732;1595;1771;1585
1728;1599;1750;1560
1747;1572;1743;1568
1783;1596;1712;1568
1760;1591;1708;1552
1716;1584;1759;1615
1759;1599;1747;1556
1720;1568;1748;1604
1744;1568;1745;1594
1728;1597;1734;1591
1730;1560;1744;1576
1728;1576;1740;1588
1728;1584;1767;1581
1728;1596;1720;1609
1728;1572;1767;1562
1730;1588;1720;1586
1773;1564;1708;1560
1728;1576;1712;1560
1747;1593;1714;1560
1736;1576;1754;1570
1775;1568;1740;1566
1720;1576;1757;1583
1728;1568;1712;1568
1744;1572;1744;1615
1756;1615;1712;1560
1728;1560;1728;1604
1744;1572;1748;1607
1728;1599;1728;1568
1749;1564;1748;1564
1728;1584;1757;1611
1773;1607;1717;1576
1771;1560;1759;1588
1738;1576;1737;1590
1752;1576;1720;1556
1720;1568;1732;1613
1755;1560;1720;1605
1773;1621;1745;1572
1732;1599;1744;1568
1728;1605;1727;1560
1732;1568;1736;1605
1773;1611;1708;1568
1784;1568;1720;1576
1744;1607;1708;1568
1791;1601;1767;1599
1749;1552;1716;1603
1760;1580;1729;1576
1748;1572;1732;1572
1760;1568;1728;1576
1773;1594;1746;1593
1759;1580;1728;1572
1760;1583;1749;1593
1744;1599;1754;1570
1752;1623;1755;1568
1764;1592;1740;1607
1744;1576;1759;1556
1728;1599;1775;1607
1740;1597;1753;1560
1712;1576;1748;1613
1724;1564;1740;1607
1736;1604;1767;1611
1767;1605;1759;1560
1728;1560;1728;1588
1759;1607;1712;1568
1728;1568;1720;1584
1728;1611;1767;1568
1712;1560;1712;1560
1732;1611;1720;1560
1739;1576;1720;1576
1728;1615;1759;1572
1712;1576;1732;1599
1759;1611;1724;1544
1716;1580;1736;1615
1716;1560;1732;1596
1775;1615;1759;1621
1759;1595;1708;1556
1748;1597;1757;1615
1767;1587;1716;1553
1735;1568;1716;1576
1758;1601;1712;1552
1716;1556;1712;1576
1759;1615;1714;1560
1781;1605;1726;1560
1728;1605;1725;1556
1748;1576;1728;1588
1728;1556;1720;1584
1783;1576;1728;1603
1781;1605;1771;1582
1742;1576;1759;1568
1744;1599;1724;1609
1728;1568;1752;1615
1757;1599;1752;1560
1775;1560;1757;1573
1736;1589;1740;1599
1728;1596;1753;1556
1732;1607;1717;1564
1736;1556;1706;1589
1716;1576;1767;1568
1749;1599;1748;1580
1724;1568;1736;1604
1732;1597;1728;1599
1736;1607;1712;1580
1765;1568;1708;1562
1736;1597;1722;1560
1775;1599;1738;1560
1740;1607;1759;1556
1728;1576;1759;1623
1775;1611;1759;1564
1728;1599;1716;1597
1775;1599;1743;1564
1720;1568;1732;1556
1716;1552;1712;1580
1781;1592;1728;1588
1712;1552;1716;1568
1736;1576;1765;1610
1736;1568;1712;1576
1771;1585;1736;1568
1767;1568;1759;1584
1751;1568;1759;1564
1732;1597;1752;1560
1767;1615;1724;1593
1712;1568;1720;1591
1712;1560;1748;1607
1712;1599;1714;1568
1728;1584;1716;1593
1748;1599;1712;1613
1728;1577;1753;1560
1755;1591;1727;1560
1712;1584;1728;1576
1728;1592;1736;1598
1759;1560;1749;1560
1742;1615;1759;1564
1712;1584;1757;1595
1716;1568;1744;1611
1759;1558;1720;1605
1775;1574;1714;1568
1728;1576;1720;1560
1712;1588;1753;1607
1730;1560;1728;1615
1741;1557;1712;1576
1750;1605;1773;1623
1743;1599;1712;1564
1729;1576;1753;1611
1713;1562;1708;1568
1700;1589;1736;1615
1713;1556;1728;1576
1743;1572;1712;1568
1704;1584;1754;1611
1727;1556;1736;1601
1755;1615;1759;1564
1720;1584;1759;1613
1708;1576;1773;1574
1720;1597;1712;1613
1737;1548;1720;1560
1712;1599;1728;1600
1748;1613;1783;1591
1759;1590;1708;1560
1712;1556;1704;1568
1744;1572;1712;1564
1728;1599;1724;1576
1767;1605;1757;1611
1755;1591;1720;1568
1728;1568;1732;1615
1775;1607;1712;1560
1708;1552;1708;1552
1712;1596;1759;1599
1712;1599;1746;1576
1724;1560;1736;1604
1759;1605;1736;1604
1759;1599;1704;1572
1759;1580;1732;1602
1712;1580;1724;1561
1728;1568;1728;1592
1753;1611;1752;1611
1704;1607;1716;1568
1720;1568;1720;1588
1759;1572;1712;1572
1720;1560;1720;1568
1732;1584;1704;1577
1716;1580;1721;1576
1775;1613;1759;1613
1749;1564;1720;1568
1763;1580;1712;1556
1728;1599;1718;1568
1736;1605;1727;1556
1720;1552;1728;1560
1732;1580;1704;1564
1708;1560;1716;1552
1728;1605;1757;1607
1773;1607;1712;1556
1716;1599;1726;1560
1759;1580;1720;1580
1756;1564;1735;1594
1748;1568;1749;1576
1747;1560;1759;1556
1749;1564;1759;1564
1775;1605;1736;1601
1759;1595;1708;1556
1716;1607;1716;1576
1748;1605;1744;1576
1773;1576;1712;1560
1700;1552;1712;1592
1767;1615;1736;1568
1728;1584;1749;1615
1742;1599;1728;1586
1749;1599;1720;1556
1720;1607;1764;1599
1724;1560;1716;1552
1716;1607;1714;1568
1753;1560;1728;1621
1740;1580;1712;1556
1704;1556;1712;1584
1728;1585;1728;1552
1704;1552;1704;1552
1728;1613;1736;1572
1728;1568;1771;1560
1720;1599;1741;1560
1759;1580;1716;1588
1721;1592;1759;1556
1728;1568;1759;1556
1736;1615;1736;1574
1759;1588;1736;1556
1740;1568;1745;1580
1736;1580;1759;1568
1775;1560;1748;1572
1728;1596;1757;1568
1767;1600;1728;1560
1728;1592;1763;1607
1769;1556;1712;1568
1728;1576;1720;1560
1720;1611;1767;1585
1741;1562;1716;1588
1749;1572;1775;1603
1775;1597;1720;1588
1775;1584;1700;1627
1763;1613;1712;1568
1720;1596;1767;1615
1749;1546;1720;1576
1728;1576;1728;1605
1752;1576;1720;1576
1758;1604;1728;1576
1757;1591;1720;1580
1767;1592;1712;1560
1712;1560;1714;1568
1748;1613;1720;1572
1757;1564;1749;1560
1736;1615;1773;1615
1747;1560;1708;1568
1728;1601;1732;1552
1712;1556;1732;1613
1728;1588;1741;1580
1744;1568;1732;1576
1740;1578;1732;1568
1733;1580;1741;1583
1753;1560;1756;1593
1720;1568;1767;1572
1728;1576;1732;1580
1738;1568;1728;1584
1737;1568;1720;1597
1736;1564;1727;1595
1728;1578;1748;1572
1720;1599;1740;1580
1732;1591;1736;1611
1734;1552;1728;1584
1759;1584;1708;1564
1713;1556;1728;1568
1732;1586;1754;1615
1767;1591;1712;1568
1728;1580;1750;1597
1749;1553;1720;1552
1744;1599;1767;1583
1732;1599;1755;1568
1761;1599;1743;1584
1783;1588;1769;1615
1745;1611;1726;1560
1764;1569;1732;1601
1787;1623;1771;1592
1769;1568;1728;1568
1744;1615;1735;1552
1736;1580;1759;1560
1728;1583;1754;1560
1747;1598;1748;1576
1728;1599;1720;1615
1757;1577;1722;1560
1756;1607;1767;1564
1744;1605;1712;1599
1728;1595;1736;1613
1775;1594;1708;1568
1765;1611;1757;1607
1757;1560;1716;1576
1748;1605;1767;1582
1717;1560;1708;1568
1720;1560;1716;1552
1716;1613;1759;1560
1728;1615;1759;1560
1740;1572;1720;1576
1759;1611;1736;1576
1748;1615;1716;1576
1757;1592;1720;1560
1704;1576;1767;1560
1712;1599;1771;1623
1728;1568;1728;1598
1727;1615;1756;1607
1763;1615;1771;1591
1712;1560;1755;1556
1748;1568;1765;1568
1743;1623;1749;1584
1744;1607;1759;1599
1722;1560;1757;1587
1704;1584;1744;1576
1716;1556;1759;1615
1767;1568;1720;1599
1732;1565;1738;1584
1725;1577;1729;1572
1717;1572;1741;1588
1734;1568;1742;1564
1756;1597;1688;1599
1716;1599;1716;1607
1724;1592;1708;1576
1745;1595;1775;1576
1744;1588;1740;1584
1740;1589;1771;1615
1783;1580;1736;1560
1720;1586;1748;1584
1762;1594;1716;1556
1728;1600;1728;1568
1736;1611;1712;1560
1744;1599;1720;1605
1716;1584;1765;1599
1714;1592;1722;1576
1754;1606;1728;1552
1704;1560;1728;1589
1755;1568;1732;1585
1736;1599;1767;1611
1708;1576;1728;1565
1714;1560;1716;1568
1728;1568;1736;1598
1749;1615;1744;1592
1759;1615;1767;1595
1714;1568;1708;1568
1755;1611;1722;1568
1732;1591;1712;1560
1712;1591;1771;1615
1740;1576;1728;1576
1740;1611;1743;1564
1716;1568;1728;1576
1732;1613;1771;1599
1759;1607;1755;1556
1736;1611;1747;1556
1716;1556;1744;1589
1771;1615;1773;1615
1757;1615;1748;1613
1757;1577;1720;1592
1752;1607;1720;1588
1775;1615;1748;1592
1748;1568;1744;1596
1771;1615;1759;1599
1764;1601;1759;1578
1720;1597;1716;1568
1765;1568;1712;1556
1712;1568;1759;1611
1716;1560;1755;1584
1727;1615;1767;1615
1759;1592;1740;1584
1744;1605;1771;1570
1712;1597;1771;1615
1767;1607;1736;1560
1700;1552;1728;1560
1736;1593;1716;1564
1700;1568;1728;1614
1751;1583;1712;1560
1743;1589;1728;1611
1723;1560;1732;1611
1727;1594;1728;1560
1720;1568;1704;1599
1759;1552;1752;1599
1708;1568;1759;1593
1712;1572;1759;1615
1759;1615;1759;1589
1725;1556;1728;1607
1759;1623;1740;1572
1744;1580;1755;1615
1767;1589;1728;1560
1728;1580;1736;1576
1736;1595;1712;1572
1740;1611;1728;1566
1732;1570;1757;1584
1730;1584;1732;1597
1736;1569;1712;1552
1704;1552;1720;1584
1759;1589;1712;1560
1736;1603;1755;1585
1704;1564;1759;1564
1744;1588;1728;1592
1747;1599;1771;1589
1704;1568;1753;1600
1759;1615;1748;1556
1696;1572;1728;1588
1750;1611;1755;1568
1738;1609;1737;1560
1759;1595;1721;1560
1741;1565;1716;1599
1736;1568;1728;1576
1724;1570;1732;1576
1724;1576;1733;1588
1724;1576;1712;1576
1728;1580;1738;1576
1716;1568;1737;1593
1712;1599;1728;1589
1728;1568;1716;1568
1728;1577;1736;1580
1732;1572;1732;1584
1740;1587;1712;1584
1759;1599;1729;1560
1756;1595;1716;1599
1759;1556;1732;1576
1728;1584;1744;1568
1720;1556;1736;1592
1740;1586;1720;1615
1773;1587;1704;1596
1767;1595;1716;1572
1756;1607;1728;1580
1759;1579;1720;1568
1771;1560;1749;1600
1760;1560;1736;1568
1767;1556;1759;1556
1763;1560;1730;1582
1736;1572;1736;1592
1728;1568;1732;1572
1720;1588;1758;1611
1759;1613;1732;1560
1728;1592;1771;1613
1759;1615;1775;1609
1752;1584;1736;1576
1745;1597;1728;1600
1759;1599;1753;1552
1767;1564;1720;1560
1736;1592;1749;1592
1757;1597;1744;1560
1730;1607;1720;1568
1745;1609;1767;1595
1724;1552;1712;1580
1757;1591;1759;1611
1759;1580;1712;1584
1759;1599;1744;1560
1728;1584;1762;1607
1759;1588;1712;1584
1763;1586;1712;1588
1773;1595;1735;1568
1759;1560;1728;1605
1775;1579;1712;1552
1720;1576;1733;1572
1771;1613;1757;1568
1768;1599;1704;1568
1769;1599;1722;1607
1755;1560;1728;1584
1712;1566;1720;1556
1720;1560;1736;1576
1752;1621;1759;1556
1712;1568;1728;1580
1728;1613;1769;1611
1759;1599;1708;1600
1718;1572;1749;1552
1720;1576;1765;1607
1727;1590;1741;1560
1740;1615;1759;1562
1736;1590;1728;1593
1771;1607;1712;1576
1736;1593;1771;1599
1718;1556;1744;1592
1744;1607;1759;1584
1753;1603;1736;1576
1720;1584;1744;1568
1762;1595;1712;1589
1720;1578;1749;1584
1728;1597;1716;1580
1759;1560;1757;1568
1745;1591;1740;1586
1754;1588;1742;1568
1754;1584;1744;1585
1752;1591;1740;1561
1732;1585;1753;1593
1752;1576;1740;1568
1768;1599;1720;1615
1734;1560;1757;1568
1774;1568;1753;1568
1728;1587;1759;1573
1736;1568;1757;1556
1775;1593;1712;1576
1775;1593;1716;1613
1771;1568;1728;1586
1760;1613;1771;1615
1775;1615;1773;1605
1759;1580;1728;1562
1759;1568;1773;1574
1712;1568;1752;1599
1739;1599;1724;1560
1755;1590;1704;1578
1733;1581;1741;1592
1741;1577;1748;1593
1734;1588;1737;1576
1716;1568;1732;1581
1724;1576;1734;1595
1730;1584;1738;1576
1720;1568;1736;1576
1724;1577;1736;1578
1716;1581;1736;1584
1736;1568;1720;1592
1739;1583;1736;1588
1724;1576;1720;1580
1722;1576;1728;1584
1737;1574;1736;1590
1735;1576;1737;1588
1742;1576;1716;1576
1759;1599;1721;1580
1737;1560;1712;1556
1728;1603;1771;1585
1716;1576;1743;1564
1759;1568;1753;1580
1720;1586;1736;1568
1748;1607;1767;1599
1767;1561;1716;1613
1722;1556;1736;1556
1716;1560;1748;1599
1759;1583;1714;1596
1759;1568;1755;1568
1771;1595;1727;1560
1750;1597;1740;1588
1744;1566;1759;1576
1712;1572;1729;1592
1741;1589;1740;1581
1728;1560;1755;1572
1724;1580;1759;1560
1712;1556;1754;1596
1712;1599;1743;1560
1704;1552;1708;1588
1743;1564;1751;1584
1708;1583;1728;1598
1751;1552;1744;1600
1712;1588;1767;1611
1733;1580;1716;1568
1743;1599;1720;1584
1726;1588;1745;1584
1740;1568;1759;1568
1751;1560;1759;1561
1720;1592;1748;1584
1728;1572;1759;1569
1720;1568;1744;1600
1773;1567;1716;1605
1720;1606;1720;1583
1765;1582;1740;1582
1739;1592;1748;1584
1732;1568;1755;1564
1720;1564;1749;1592
1763;1556;1736;1623
1738;1571;1712;1596
1771;1564;1736;1592
1783;1560;1752;1588
1759;1564;1720;1576
1771;1564;1712;1580
1769;1564;1759;1615
1773;1609;1748;1611
1724;1565;1716;1568
1759;1568;1757;1564
1744;1575;1716;1585
1759;1564;1728;1619
1775;1591;1759;1572
1727;1568;1728;1588
1771;1565;1720;1588
1763;1613;1773;1619
1759;1554;1759;1573
1728;1603;1771;1564
1712;1564;1712;1568
1775;1615;1771;1607
1732;1556;1728;1588
1783;1599;1716;1607
1728;1568;1759;1576
1762;1607;1731;1560
1748;1583;1720;1613
1751;1568;1769;1615
1747;1572;1712;1564
1768;1615;1759;1568
1748;1564;1757;1564
1773;1564;1765;1572
1728;1576;1767;1599
1732;1584;1722;1590
1732;1568;1732;1605
1744;1568;1720;1605
1759;1587;1759;1562
1728;1560;1736;1602
1758;1597;1728;1560
1728;1569;1759;1615
1721;1560;1773;1607
1759;1562;1738;1615
1743;1573;1730;1560
1728;1584;1773;1621
1759;1579;1721;1564
1728;1596;1759;1589
1704;1568;1708;1568
1746;1615;1767;1623
1759;1556;1712;1572
1755;1621;1771;1623
1759;1532;1728;1597
1730;1576;1725;1564
1751;1552;1743;1572
1718;1597;1755;1588
1726;1581;1742;1585
1712;1568;1728;1581
1700;1598;1775;1599
1735;1560;1756;1619
1757;1561;1720;1592
1731;1592;1722;1605
1725;1556;1736;1600
1747;1568;1743;1584
1724;1560;1728;1597
1708;1599;1716;1589
1767;1599;1708;1568
1759;1572;1720;1607
1712;1556;1732;1584
1759;1599;1783;1615
1767;1611;1759;1583
1728;1568;1767;1591
1743;1599;1712;1598
1721;1605;1732;1587
1728;1588;1752;1597
1757;1564;1759;1568
1745;1580;1759;1560
1724;1560;1728;1597
1741;1560;1720;1603
1736;1576;1775;1615
1773;1607;1732;1556
1712;1560;1759;1568
1751;1594;1740;1588
1736;1568;1730;1599
1720;1605;1728;1572
1730;1599;1732;1591
1720;1596;1762;1556
1708;1561;1728;1623
1759;1611;1759;1615
1735;1560;1759;1599
1722;1583;1712;1600
1728;1586;1751;1564
1748;1599;1720;1568
1737;1592;1720;1587
1728;1564;1759;1572
1714;1552;1740;1615
1771;1556;1728;1588
1775;1615;1737;1564
1712;1548;1720;1568
1752;1605;1738;1572
1756;1615;1759;1613
1740;1577;1759;1568
1744;1599;1771;1568
1775;1615;1751;1565
1783;1588;1757;1568
1756;1621;1727;1576
1742;1576;1759;1568
1740;1599;1720;1615
1720;1560;1732;1568
1716;1576;1752;1615
1769;1568;1733;1588
1728;1590;1751;1580
1720;1572;1740;1584
1753;1596;1753;1584
1728;1580;1751;1556
1706;1568;1771;1629
1771;1568;1736;1576
1744;1568;1736;1602
1759;1599;1771;1597
1729;1572;1736;1609
1767;1605;1761;1560
1720;1568;1775;1589
1713;1572;1759;1560
1759;1561;1756;1565
1720;1568;1775;1581
1720;1560;1759;1599
1757;1560;1744;1588
1767;1560;1759;1568
1759;1593;1740;1568
1732;1573;1730;1581
1728;1552;1736;1588
1756;1593;1733;1568
1751;1599;1728;1615
1728;1584;1759;1580
1712;1556;1714;1576
1781;1599;1720;1580
1767;1540;1712;1599
1728;1599;1729;1599
1713;1576;1767;1560
1732;1605;1771;1594
1775;1560;1712;1609
1732;1589;1751;1564
1728;1560;1759;1615
1728;1594;1740;1568
1775;1556;1748;1572
1748;1604;1728;1603
1765;1560;1767;1613
1740;1564;1759;1560
1753;1572;1728;1576
1732;1568;1729;1580
1729;1576;1738;1593
1753;1582;1740;1584
1716;1568;1749;1568
1756;1615;1736;1568
1757;1578;1732;1596
1712;1607;1743;1577
1717;1556;1746;1613
1725;1568;1759;1583
1696;1560;1765;1600
1767;1596;1732;1584
1759;1597;1771;1615
1727;1599;1751;1593
1704;1586;1749;1568
1724;1569;1759;1599
1714;1561;1712;1556
1712;1599;1708;1556
1738;1591;1712;1576
1740;1552;1720;1568
1732;1588;1765;1584
1756;1576;1744;1623
1767;1560;1757;1568
1759;1560;1745;1623
1775;1577;1713;1560
1716;1569;1720;1592
1775;1560;1728;1592
1771;1576;1716;1576
1767;1560;1736;1607
1737;1595;1720;1599
1716;1560;1759;1560
1712;1564;1751;1587
1704;1560;1720;1597
1727;1589;1712;1576
1759;1560;1767;1595
1712;1560;1752;1597
1708;1560;1728;1576
1716;1596;1771;1582
1716;1552;1712;1588
1716;1599;1732;1568
1737;1595;1740;1576
1704;1568;1759;1615
1767;1560;1728;1576
1751;1615;1757;1564
1732;1607;1751;1560
1700;1568;1773;1576
1708;1556;1716;1560
1720;1568;1773;1613
1727;1568;1732;1594
1748;1568;1750;1574
1728;1568;1759;1602
1773;1594;1712;1613
1728;1560;1744;1603
1757;1560;1728;1615
1759;1568;1720;1592
1775;1564;1759;1560
1759;1572;1720;1576
1741;1584;1743;1583
1740;1580;1740;1580
1742;1584;1734;1580
1728;1564;1738;1591
1757;1556;1764;1593
1712;1568;1773;1564
1744;1607;1726;1560
1704;1568;1736;1568
1720;1584;1759;1615
1767;1593;1759;1591
1726;1568;1732;1623
1741;1564;1738;1588
1724;1595;1728;1623
1733;1560;1728;1597
1728;1593;1748;1573
1732;1591;1744;1579
1720;1580;1759;1585
1714;1593;1724;1560
1708;1572;1716;1584
1751;1560;1765;1572
1728;1568;1748;1615
1735;1568;1743;1576
1732;1587;1749;1596
1732;1599;1716;1568
1732;1568;1744;1623
1781;1607;1720;1592
1783;1613;1775;1607
1781;1577;1712;1584
1783;1607;1771;1619
1762;1560;1736;1600
1791;1615;1743;1572
1752;1580;1739;1599
1752;1576;1759;1593
1740;1556;1728;1560
1746;1560;1728;1615
1791;1560;1712;1556
1732;1560;1773;1591
1749;1560;1712;1572
1736;1611;1713;1607
1736;1576;1744;1572
1728;1590;1773;1599
1767;1560;1728;1615
1728;1564;1767;1577
1708;1582;1712;1568
1736;1580;1748;1615
1755;1560;1747;1560
1712;1580;1767;1609
1763;1597;1704;1576
1752;1595;1787;1627
1746;1593;1712;1584
1730;1584;1781;1615
1755;1583;1712;1556
1708;1556;1736;1611
1743;1560;1759;1568
1708;1592;1737;1568
1745;1607;1712;1560
1700;1568;1767;1615
1757;1615;1759;1599
1741;1568;1720;1599
1712;1552;1712;1584
1767;1562;1728;1611
1757;1568;1775;1623
1736;1568;1767;1589
1775;1611;1775;1592
1765;1609;1767;1583
1716;1560;1740;1615
1732;1576;1757;1568
1728;1560;1736;1615
1732;1560;1767;1623
1775;1599;1725;1564
1714;1564;1740;1586
1759;1595;1720;1564
1740;1592;1765;1595
1713;1564;1720;1556
1712;1560;1712;1568
1767;1577;1712;1572
1712;1560;1728;1583
1724;1577;1700;1584
1752;1611;1767;1556
1720;1604;1771;1584
1720;1576;1737;1564
1708;1568;1736;1607
1747;1566;1712;1576
1767;1560;1759;1573
1727;1564;1712;1623
1728;1568;1765;1600
1773;1562;1717;1552
1716;1568;1748;1592
1748;1607;1757;1599
1757;1595;1727;1576
1712;1584;1757;1568
1712;1552;1712;1576
1773;1577;1704;1564
1740;1568;1754;1615
1738;1589;1720;1604
1740;1568;1755;1568
1716;1599;1712;1568
1728;1556;1716;1610
1730;1568;1759;1599
1720;1568;1759;1607
1728;1552;1759;1583
1712;1556;1716;1576
1728;1576;1753;1608
1775;1580;1708;1601
1744;1568;1735;1584
1720;1591;1740;1576
1728;1615;1717;1576
1751;1590;1740;1585
1732;1583;1745;1593
1746;1589;1743;1585
1756;1586;1743;1586
1736;1576;1748;1590
1744;1589;1756;1593
1728;1584;1757;1579
1712;1572;1773;1560
1736;1580;1751;1607
1712;1599;1716;1568
1728;1607;1716;1560
1728;1588;1737;1552
1716;1560;1728;1596
1749;1607;1736;1603
1771;1560;1732;1613
1728;1572;1744;1591
1728;1584;1771;1615
1775;1583;1716;1554
1721;1552;1712;1604
1759;1583;1716;1536
1720;1556;1732;1601
1759;1568;1743;1560
1761;1607;1718;1568
1744;1592;1767;1599
1740;1560;1759;1595
1787;1599;1767;1599
1751;1552;1720;1600
1768;1615;1720;1560
1756;1576;1759;1592
1766;1607;1759;1583
1738;1584;1720;1586
1752;1560;1750;1599
1716;1584;1749;1556
1704;1596;1714;1588
1739;1584;1716;1605
1728;1576;1732;1584
1734;1572;1733;1578
1728;1578;1732;1576
1716;1584;1736;1585
1746;1580;1732;1564
1731;1594;1755;1588
1732;1588;1746;1588
1731;1572;1716;1572
1732;1577;1733;1589
1736;1580;1733;1584
1732;1580;1736;1581
1722;1584;1729;1576
1724;1582;1738;1584
1720;1576;1738;1578
1728;1580;1720;1594
1720;1576;1733;1593
1720;1572;1728;1564
1730;1566;1744;1577
1728;1585;1745;1589
1747;1578;1736;1576
1736;1581;1745;1584
1736;1568;1720;1580
1747;1560;1767;1560
1720;1552;1732;1611
1728;1588;1773;1599
1730;1560;1716;1560
1720;1552;1744;1599
1729;1560;1720;1600
1771;1607;1759;1581
1734;1572;1771;1615
1740;1556;1720;1568
1759;1560;1759;1581
1720;1560;1712;1615
1751;1556;1706;1560
1714;1560;1716;1584
1759;1568;1740;1611
1716;1611;1724;1564
1712;1568;1750;1619
1767;1607;1726;1568
1728;1568;1728;1607
1757;1593;1717;1564
1716;1560;1720;1576
1736;1593;1765;1615
1759;1574;1728;1584
1740;1615;1775;1576
1719;1560;1747;1621
1716;1615;1720;1585
1728;1615;1726;1576
1763;1615;1767;1587
1730;1560;1720;1604
1779;1607;1767;1588
1751;1568;1749;1560
1712;1599;1747;1564
1728;1568;1720;1601
1755;1568;1755;1576
1752;1613;1775;1609
1771;1564;1754;1599
1720;1576;1759;1607
1773;1607;1743;1573
1720;1560;1720;1580
1744;1572;1759;1595
1728;1560;1736;1586
1744;1599;1773;1572
1720;1560;1720;1584
1736;1572;1716;1588
1754;1615;1771;1596
1744;1599;1720;1607
1726;1576;1755;1619
1761;1615;1771;1580
1720;1556;1712;1588
1736;1568;1759;1615
1720;1576;1767;1560
1771;1623;1749;1599
1729;1568;1752;1600
1752;1613;1759;1570
1728;1560;1708;1564
1712;1568;1728;1593
1768;1588;1756;1608
1775;1611;1716;1572
1765;1599;1733;1560
1728;1564;1748;1611
1759;1560;1744;1615
1720;1556;1759;1583
1708;1593;1724;1554
1728;1576;1762;1595
1720;1552;1728;1600
1783;1587;1712;1607
1751;1568;1767;1599
1743;1562;1712;1556
1775;1607;1728;1604
1742;1552;1700;1576
1752;1560;1736;1570
1752;1599;1720;1568
1736;1598;1728;1576
1754;1560;1757;1569
1728;1568;1736;1607
1728;1599;1728;1596
1746;1593;1732;1564
1771;1577;1728;1615
1716;1568;1736;1615
1748;1568;1738;1611
1736;1580;1759;1599
1716;1599;1726;1566
1716;1572;1767;1587
1728;1572;1759;1562
1712;1587;1732;1568
1748;1591;1759;1552
1740;1581;1712;1615
1728;1591;1720;1615
1726;1590;1716;1600
1775;1595;1712;1580
1748;1568;1712;1556
1720;1598;1775;1611
1728;1568;1751;1602
1744;1576;1756;1623
1773;1581;1712;1580
1775;1583;1706;1556
1720;1564;1704;1560
1716;1560;1748;1613
1775;1582;1712;1568
1748;1595;1735;1560
1728;1568;1728;1601
1777;1613;1755;1569
1724;1584;1712;1597
1746;1560;1704;1566
1754;1564;1712;1589
1781;1562;1728;1611
1738;1572;1767;1623
1783;1599;1716;1597
1730;1593;1726;1556
1720;1599;1739;1568
1744;1580;1765;1609
1744;1577;1752;1613
1775;1568;1732;1615
1736;1556;1716;1611
1736;1556;1712;1560
1716;1572;1757;1568
1757;1576;1743;1593
1741;1583;1753;1581
1744;1585;1734;1588
1737;1584;1736;1580
1733;1578;1741;1580
1738;1589;1734;1584
1744;1572;1722;1587
1751;1592;1756;1572
1759;1568;1772;1591
1716;1595;1730;1568
1759;1568;1759;1615
1767;1584;1755;1552
1740;1588;1746;1590
1737;1577;1732;1576
1736;1588;1737;1584
1728;1599;1760;1607
1704;1576;1759;1611
1732;1560;1712;1600
1775;1560;1759;1556
1736;1597;1743;1556
1767;1568;1712;1556
1728;1600;1751;1560
1736;1568;1728;1584
1736;1584;1767;1560
1720;1568;1728;1560
1724;1560;1748;1627
1767;1599;1718;1552
1736;1576;1749;1560
1728;1580;1757;1623
1781;1615;1722;1568
1728;1560;1712;1560
1720;1593;1749;1592
1720;1594;1716;1607
1720;1595;1740;1564
1752;1611;1721;1552
1728;1560;1758;1595
1708;1595;1743;1590
1730;1585;1744;1585
1740;1568;1743;1568
1728;1623;1727;1556
1712;1568;1728;1584
1753;1599;1771;1611
1720;1589;1738;1569
1712;1560;1765;1629
1720;1597;1716;1607
1714;1593;1726;1568
1736;1560;1716;1580
1740;1605;1755;1583
1729;1560;1720;1605
1775;1589;1720;1576
1759;1572;1728;1588
1744;1599;1771;1567
1740;1576;1759;1566
1736;1568;1728;1560
1728;1568;1728;1552
1720;1556;1765;1574
1716;1576;1738;1588
1728;1560;1712;1568
1720;1568;1746;1615
1747;1564;1748;1578
1740;1599;1728;1599
1716;1556;1720;1568
1728;1568;1720;1596
1768;1568;1759;1581
1728;1596;1759;1560
1720;1568;1732;1605
1741;1596;1720;1593
1736;1583;1728;1599
1728;1611;1720;1607
1720;1560;1741;1599
1743;1560;1712;1605
1759;1560;1720;1592
1759;1576;1712;1556
1712;1615;1757;1560
1712;1568;1712;1560
1704;1580;1684;1580
1749;1560;1759;1580
1720;1560;1736;1584
1740;1568;1720;1556
1728;1568;1720;1568
1720;1572;1712;1560
1736;1591;1728;1613
1748;1552;1716;1580
1744;1536;1745;1613
1722;1599;1720;1586
1756;1605;1759;1576
1716;1596;1758;1599
1716;1607;1747;1564
1728;1584;1755;1623
1764;1599;1771;1597
1712;1597;1726;1560
1728;1605;1755;1560
1716;1588;1771;1580
1732;1591;1712;1568
1736;1598;1759;1587
1712;1564;1763;1583
1728;1604;1771;1562
1750;1586;1732;1599
1712;1605;1759;1611
1716;1611;1720;1568
1728;1568;1716;1560
1716;1580;1779;1597
1728;1599;1728;1599
1737;1562;1771;1557
1716;1603;1767;1615
1767;1615;1771;1615
1749;1591;1712;1568
1740;1615;1725;1556
1720;1593;1767;1564
1738;1587;1712;1596
1759;1556;1728;1584
1767;1599;1720;1560
1712;1576;1752;1576
1753;1572;1754;1590
1720;1609;1743;1579
1728;1607;1716;1580
1767;1615;1726;1556
1753;1580;1758;1568
1740;1584;1728;1568
1736;1556;1754;1599
1759;1593;1720;1556
1728;1580;1759;1578
1720;1556;1736;1621
1781;1597;1716;1592
1759;1599;1749;1560
1732;1605;1759;1561
1720;1596;1765;1599
1724;1562;1708;1560
1736;1588;1728;1576
1736;1600;1728;1604
1732;1560;1740;1609
1738;1568;1740;1615
1720;1552;1728;1552
1720;1607;1743;1564
1751;1560;1712;1548
1712;1568;1740;1601
1757;1607;1752;1615
1759;1613;1771;1599
1712;1593;1728;1599
1720;1572;1728;1576
1728;1584;1736;1572
1718;1568;1740;1584
1740;1584;1716;1572
1720;1593;1747;1560
1716;1596;1765;1621
1775;1599;1712;1556
1736;1572;1753;1615
1775;1599;1759;1585
1712;1556;1744;1615
1743;1574;1708;1568
1732;1580;1720;1588
1773;1584;1759;1552
1732;1599;1749;1572
1757;1584;1724;1568
1729;1578;1736;1572
1728;1576;1736;1585
1736;1590;1728;1609
1716;1599;1741;1572
1759;1560;1744;1585
1743;1560;1757;1556
1749;1599;1767;1599
1743;1552;1708;1560
1708;1560;1744;1595
1704;1589;1748;1621
1743;1589;1736;1615
1751;1599;1725;1568
1708;1552;1708;1568
1712;1599;1731;1556
1748;1604;1756;1623
1736;1611;1743;1560
1704;1568;1732;1576
1736;1592;1745;1589
1767;1615;1767;1599
1720;1556;1728;1568
1759;1605;1767;1599
1727;1572;1708;1560
1728;1592;1753;1605
1753;1595;1728;1615
1775;1607;1759;1615
1767;1572;1728;1588
1716;1552;1720;1588
1773;1568;1754;1560
1752;1560;1708;1556
1688;1607;1744;1607
1783;1593;1757;1623
1775;1599;1716;1592
1740;1556;1767;1576
1743;1584;1720;1564
1759;1568;1728;1584
1757;1583;1739;1560
1728;1599;1712;1576
1744;1588;1767;1597
1712;1609;1767;1584
1720;1560;1720;1560
1716;1602;1767;1577
1712;1560;1712;1568
1720;1597;1765;1615
1743;1564;1716;1576
1736;1584;1712;1556
1712;1572;1759;1560
1740;1611;1757;1597
1755;1576;1728;1615
1714;1586;1767;1586
1724;1560;1720;1599
1755;1615;1721;1568
1759;1566;1745;1601
1728;1560;1759;1561
1745;1568;1757;1564
1751;1589;1720;1572
1749;1583;1708;1568
1736;1576;1700;1589
1713;1556;1749;1587
1704;1607;1712;1576
1743;1576;1728;1572
1757;1594;1728;1597
1736;1560;1728;1613
1775;1604;1759;1556
1745;1568;1769;1595
1728;1587;1746;1568
1759;1592;1724;1596
1728;1584;1732;1586
1732;1576;1732;1572
1732;1576;1728;1568
1728;1569;1728;1585
1738;1576;1712;1597
1767;1593;1716;1572
1749;1588;1716;1560
1720;1576;1740;1607
1759;1615;1743;1599
1721;1560;1748;1599
1734;1560;1745;1599
1759;1560;1728;1584
1745;1568;1720;1560
1736;1613;1771;1615
1731;1564;1749;1599
1708;1584;1712;1584
1743;1564;1767;1569
1704;1568;1728;1584
1749;1599;1736;1568
1740;1560;1716;1568
1736;1580;1720;1560
1720;1604;1767;1606
1769;1584;1716;1589
1775;1596;1728;1568
1732;1613;1759;1578
1712;1556;1728;1600
1775;1603;1752;1615
1771;1607;1716;1568
1744;1597;1728;1560
1732;1615;1725;1556
1728;1596;1756;1599
1743;1568;1767;1556
1752;1592;1759;1575
1736;1621;1712;1592
1759;1611;1775;1592
1728;1568;1712;1568
1740;1613;1765;1583
1728;1560;1732;1599
1775;1615;1757;1609
1716;1576;1726;1572
1775;1615;1725;1566
1716;1568;1748;1615
1757;1599;1704;1544
1712;1572;1752;1605
1759;1615;1755;1560
1752;1592;1728;1568
1728;1556;1716;1599
1759;1615;1743;1560
1728;1568;1720;1556
1728;1568;1736;1592
1765;1568;1728;1568
1751;1607;1720;1560
1712;1599;1712;1576
1757;1607;1716;1560
1748;1572;1756;1580
1728;1560;1712;1572
1728;1576;1745;1605
1728;1568;1759;1560
1720;1613;1716;1568
1740;1597;1728;1572
1744;1615;1727;1615
1775;1611;1759;1560
1752;1605;1773;1611
1759;1615;1763;1576
1736;1615;1771;1599
1744;1556;1736;1611
1720;1578;1737;1585
1745;1580;1736;1585
1741;1572;1736;1576
1738;1569;1736;1580
1741;1580;1736;1570
1728;1595;1728;1576
1756;1615;1759;1595
1736;1556;1736;1599
1727;1593;1712;1600
1728;1568;1708;1568
1752;1568;1728;1568
1765;1580;1716;1588
1767;1597;1718;1560
1751;1560;1728;1584
1736;1597;1728;1556
1712;1552;1728;1584
1732;1584;1720;1564
1708;1552;1732;1599
1716;1592;1736;1552
1704;1552;1720;1568
1728;1599;1765;1599
1757;1560;1738;1586
1759;1615;1720;1556
1712;1607;1747;1576
1767;1615;1767;1593
1759;1569;1708;1560
1736;1576;1745;1560
1708;1560;1728;1592
1759;1621;1736;1560
1728;1568;1736;1599
1740;1568;1716;1556
1759;1599;1732;1560
1758;1599;1727;1580
1759;1568;1743;1552
1728;1599;1720;1596
1758;1594;1736;1615
1742;1572;1756;1589
1716;1560;1740;1576
1744;1611;1759;1595
1728;1552;1728;1613
1747;1560;1712;1556
1720;1568;1736;1576
1744;1615;1775;1581
1704;1556;1728;1606
1767;1584;1720;1560
1720;1611;1743;1568
1720;1596;1771;1560
1751;1580;1716;1597
1700;1568;1763;1584
1712;1560;1759;1583
1720;1587;1744;1583
1712;1544;1740;1599
1720;1597;1728;1599
1712;1588;1759;1564
1728;1599;1763;1599
1755;1572;1720;1597
1736;1565;1732;1584
1740;1576;1729;1580
1732;1590;1739;1585
1728;1573;1747;1568
1749;1568;1753;1609
1746;1588;1732;1584
1744;1599;1759;1587
1735;1552;1744;1623
1728;1599;1744;1603
1771;1560;1728;1568
1744;1568;1712;1565
1751;1615;1771;1615
1740;1572;1759;1611
1757;1552;1747;1607
1716;1556;1759;1561
1708;1560;1736;1584
1728;1599;1744;1584
1757;1607;1753;1560
1728;1603;1759;1556
1757;1576;1716;1607
1704;1576;1736;1584
1767;1597;1735;1574
1751;1611;1752;1592
1740;1597;1770;1604
1728;1576;1716;1560
1712;1556;1712;1568
1759;1583;1712;1576
1759;1553;1716;1611
1783;1599;1728;1564
1716;1560;1754;1611
1771;1613;1743;1560
1728;1568;1757;1601
1728;1568;1720;1552
1716;1556;1720;1568
1736;1615;1716;1570
1759;1556;1720;1576
1779;1621;1759;1595
1743;1556;1744;1600
1779;1599;1733;1560
1761;1611;1767;1611
1789;1575;1759;1560
1748;1589;1736;1568
1736;1599;1752;1605
1775;1569;1716;1572
1744;1621;1757;1568
1772;1599;1747;1568
1773;1615;1767;1586
1740;1560;1752;1611
1759;1615;1767;1586
1729;1560;1728;1596
1771;1615;1728;1568
1759;1607;1759;1588
1724;1577;1712;1560
1767;1560;1744;1611
1720;1568;1765;1583
1754;1560;1728;1599
1732;1568;1755;1576
1728;1572;1753;1564
1766;1564;1755;1585
1743;1564;1767;1599
1729;1552;1728;1592
1767;1590;1704;1592
1771;1611;1767;1585
1747;1562;1720;1603
1724;1564;1765;1599
1783;1599;1713;1576
1765;1599;1757;1573
1759;1560;1728;1611
1783;1607;1728;1560
1728;1568;1728;1584
1770;1613;1728;1556
1728;1552;1728;1599
1787;1588;1764;1601
1764;1592;1756;1615
1783;1597;1712;1560
1788;1560;1732;1568
1773;1585;1736;1584
1779;1580;1736;1595
1768;1580;1728;1568
1768;1564;1728;1577
1764;1580;1720;1604
1791;1594;1720;1568
1740;1601;1757;1580
1752;1568;1736;1592
1775;1611;1759;1577
1720;1552;1716;1568
1745;1572;1728;1556
1743;1560;1736;1584
1728;1589;1759;1597
1749;1560;1716;1580
1734;1615;1760;1568
1753;1565;1720;1599
1712;1554;1752;1615
1759;1611;1775;1590
1712;1584;1749;1576
1714;1597;1728;1583
1720;1599;1732;1584
1757;1564;1732;1607
1708;1564;1759;1569
1716;1568;1756;1596
1740;1576;1759;1607
1759;1577;1712;1611
1723;1568;1736;1580
1759;1611;1756;1584
1728;1568;1765;1611
1775;1599;1736;1568
1765;1585;1720;1593
1755;1556;1744;1613
1775;1596;1736;1552
1752;1584;1744;1560
1736;1568;1744;1599
1749;1578;1716;1619
1771;1623;1759;1585
1767;1613;1738;1568
1767;1615;1767;1621
1756;1586;1720;1552
1704;1560;1744;1584
1728;1556;1757;1556
1747;1568;1757;1560
1753;1586;1728;1578
1712;1599;1712;1568
1759;1568;1728;1593
1700;1584;1759;1615
1767;1568;1720;1576
1759;1613;1767;1623
1767;1593;1759;1607
1759;1599;1747;1560
1724;1581;1737;1582
1742;1578;1744;1586
1742;1576;1728;1580
1736;1568;1728;1568
1733;1576;1728;1580
1744;1572;1720;1568
1730;1572;1729;1580
1740;1572;1736;1582
1756;1572;1720;1589
1759;1580;1736;1568
1742;1599;1740;1560
1775;1611;1759;1623
1791;1568;1748;1577
1736;1613;1767;1599
1772;1592;1728;1592
1780;1588;1728;1556
1760;1568;1736;1584
1815;1604;1756;1568
1807;1556;1744;1615
1823;1584;1728;1556
1760;1560;1749;1588
1805;1615;1769;1615
1819;1576;1748;1607
1807;1599;1742;1556
1752;1556;1736;1584
1760;1607;1721;1560
1787;1580;1730;1600
1737;1591;1724;1576
1752;1597;1738;1562
1769;1595;1720;1599
1760;1560;1759;1581
1740;1586;1712;1592
1753;1560;1753;1568
1759;1568;1769;1572
1712;1576;1767;1592
1712;1576;1744;1584
1767;1613;1732;1568
1740;1591;1712;1568
1740;1607;1712;1568
1773;1599;1724;1568
1773;1611;1716;1576
1805;1615;1767;1607
1815;1599;1759;1562
1807;1568;1720;1589
1801;1560;1747;1576
1791;1560;1759;1564
1792;1584;1758;1605
1815;1619;1754;1600
1815;1611;1720;1580
1811;1591;1743;1560
1792;1600;1736;1584
1805;1609;1767;1599
1787;1569;1728;1597
1795;1595;1726;1568
1779;1576;1724;1584
1759;1594;1728;1615
1775;1615;1759;1599
1759;1599;1759;1615
1759;1611;1759;1599
1720;1579;1745;1560
1720;1560;1740;1600
1746;1597;1749;1560
1760;1592;1773;1607
1768;1572;1720;1599
1776;1584;1759;1568
1768;1552;1736;1568
1835;1611;1759;1580
1792;1552;1716;1568
1821;1588;1756;1596
1817;1597;1712;1609
1784;1568;1758;1581
1768;1552;1732;1592
1807;1556;1746;1615
1803;1595;1759;1560
1752;1568;1728;1576
1760;1615;1740;1560
1736;1596;1756;1611
1728;1611;1767;1598
1704;1599;1767;1592
1721;1599;1740;1560
1704;1615;1771;1597
1712;1611;1767;1576
1727;1607;1757;1573
1664;1599;1716;1576
1688;1560;1712;1592
1708;1605;1769;1615
1718;1589;1754;1615
1739;1565;1728;1580
1735;1599;1724;1556
1680;1568;1771;1560
1694;1560;1759;1572
1716;1599;1716;1585
1757;1568;1771;1615
1807;1572;1724;1560
1816;1607;1752;1584
1800;1588;1756;1584
1843;1607;1759;1584
1823;1615;1767;1605
1837;1564;1728;1607
1792;1560;1756;1613
1835;1564;1750;1615
1831;1589;1714;1556
1808;1588;1759;1615
1836;1615;1769;1568
1825;1576;1732;1600
1823;1613;1724;1568
1791;1556;1759;1592
1728;1568;1748;1585
1759;1566;1716;1607
1771;1564;1712;1576
1759;1580;1767;1595
1712;1556;1728;1568
1728;1576;1732;1576
1772;1611;1775;1615
1783;1560;1720;1611
1765;1564;1708;1560
1823;1560;1728;1599
1792;1564;1706;1556
1796;1599;1747;1560
1823;1568;1732;1607
1764;1588;1759;1569
1746;1568;1757;1568
1821;1556;1748;1587
1808;1596;1769;1584
1871;1595;1712;1605
1887;1573;1741;1564
1919;1573;1712;1601
1916;1564;1771;1599
1983;1568;1714;1584
2047;1556;1728;1568
1996;1552;1728;1576
2047;1595;1724;1552
1996;1560;1720;1605
2037;1560;1744;1576
1989;1578;1728;1615
1941;1577;1720;1599
1855;1556;1748;1588
1855;1591;1724;1572
1808;1599;1728;1565
1794;1579;1747;1572
1740;1580;1741;1581
1754;1573;1732;1584
1752;1576;1736;1584
1740;1580;1745;1584
1725;1578;1736;1588
1697;1584;1737;1593
1696;1581;1712;1588
1723;1568;1736;1576
1720;1568;1752;1596
1791;1568;1759;1583
1831;1591;1712;1580
1886;1560;1716;1584
1990;1560;1765;1621
2111;1613;1753;1579
2138;1572;1714;1568
2151;1560;1758;1615
2143;1599;1716;1576
2100;1580;1758;1568
2024;1576;1732;1607
2062;1592;1773;1600
1997;1569;1716;1596
1951;1568;1736;1560
1941;1615;1775;1601
1892;1611;1751;1564
1808;1560;1728;1597
1738;1576;1712;1611
1733;1615;1759;1589
1572;1576;1744;1584
1467;1597;1718;1560
1316;1564;1767;1611
1311;1615;1759;1583
1253;1552;1728;1584
1316;1596;1752;1600
1403;1583;1773;1615
1503;1577;1712;1600
1503;1560;1741;1597
1472;1605;1753;1564
1504;1560;1736;1560
1536;1568;1764;1602
1631;1591;1733;1562
1664;1570;1728;1603
1779;1556;1759;1560
1840;1615;1767;1597
1927;1552;1712;1576
2079;1568;1752;1607
2171;1597;1759;1608
2231;1584;1744;1593
2308;1611;1724;1560
2395;1580;1714;1584
2399;1580;1712;1576
2417;1596;1759;1562
2368;1576;1757;1556
2376;1552;1767;1597
2312;1560;1716;1564
2234;1592;1771;1619
2199;1607;1732;1615
2149;1588;1775;1623
2125;1607;1773;1599
2047;1599;1724;1589
1928;1560;1736;1599
1841;1568;1756;1572
1768;1613;1737;1568
1620;1582;1759;1589
1466;1569;1712;1560
1348;1580;1767;1615
1439;1583;1737;1552
1416;1580;1720;1583
1452;1596;1743;1564
1480;1584;1732;1576
1456;1572;1736;1572
1400;1578;1739;1591
1408;1568;1759;1562
1481;1599;1712;1568
1563;1611;1747;1564
1604;1585;1775;1615
1751;1611;1755;1583
1829;1570;1712;1601
1914;1560;1757;1576
1957;1577;1749;1588
1976;1576;1736;1588
1960;1572;1732;1580
1905;1580;1738;1589
1859;1576;1744;1588
1792;1572;1732;1580
1784;1580;1740;1590
1788;1576;1744;1590
1809;1587;1750;1597
1873;1577;1738;1592
1970;1581;1736;1577
2077;1576;1732;1580
2160;1584;1720;1615
2269;1556;1728;1560
2352;1584;1765;1621
2491;1599;1783;1596
2535;1592;1767;1615
2511;1560;1753;1607
2468;1564;1765;1615
2479;1560;1732;1592
2379;1560;1712;1593
2286;1597;1726;1560
2272;1584;1767;1589
2237;1556;1720;1609
2120;1568;1742;1568
2118;1560;1767;1615
2061;1560;1759;1585
1948;1560;1716;1596
1927;1577;1735;1599
1901;1556;1736;1584
1832;1568;1773;1564
1773;1576;1720;1605
1823;1564;1736;1615
1852;1548;1716;1576
1954;1588;1755;1623
2047;1556;1748;1560
2023;1592;1745;1587
1920;1564;1759;1564
1736;1613;1766;1592
1632;1600;1775;1568
1600;1568;1759;1568
1583;1572;1759;1560
1472;1584;1759;1597
1375;1560;1740;1607
1285;1568;1720;1576
1229;1556;1716;1576
1229;1609;1759;1599
1277;1552;1712;1572
1335;1615;1775;1599
1333;1560;1708;1568
1304;1592;1767;1572
1320;1564;1755;1576
1312;1572;1773;1613
1311;1599;1751;1560
1288;1589;1771;1615
1421;1553;1728;1584
1575;1583;1739;1569
1608;1611;1775;1576
1672;1572;1749;1607
1673;1556;1759;1615
1692;1560;1716;1599
1640;1564;1767;1615
1592;1564;1748;1623
1629;1560;1728;1584
1591;1599;1775;1615
1512;1584;1769;1568
1416;1576;1765;1583
1324;1601;1759;1615
1279;1615;1751;1568
1160;1603;1724;1592
1221;1568;1755;1560
1280;1596;1771;1592
1389;1564;1728;1596
1388;1572;1759;1564
1436;1560;1744;1609
1557;1582;1736;1560
1616;1556;1728;1576
1769;1609;1721;1593
1887;1576;1728;1597
1965;1613;1775;1621
1996;1568;1765;1615
2000;1568;1773;1592
2011;1599;1747;1568
1901;1560;1759;1599
1732;1560;1728;1584
1659;1611;1755;1565
1579;1615;1775;1599
1549;1593;1724;1564
1608;1556;1748;1621
1767;1615;1775;1572
1800;1585;1766;1615
1791;1615;1771;1594
1781;1607;1731;1564
1728;1568;1740;1576
1696;1611;1733;1562
1624;1572;1720;1584
1631;1599;1725;1568
1741;1568;1728;1597
1836;1568;1753;1615
1919;1623;1759;1600
2027;1609;1783;1608
2045;1603;1712;1556
1944;1556;1756;1580
1824;1560;1767;1615
1805;1583;1712;1609
1799;1560;1765;1615
1810;1568;1747;1576
1828;1560;1743;1576
1683;1564;1767;1560
1527;1584;1736;1585
1337;1589;1740;1581
1194;1581;1736;1588
976;1576;1740;1589
793;1584;1737;1584
712;1581;1741;1586
789;1590;1732;1560
853;1568;1721;1599
921;1584;1740;1582
1105;1590;1745;1588
1268;1572;1732;1572
1424;1584;1729;1588
1542;1588;1744;1589
1612;1589;1743;1596
1648;1580;1738;1586
1704;1587;1746;1585
1752;1586;1736;1576
1800;1581;1738;1572
1880;1568;1732;1584
2013;1580;1737;1584
2132;1589;1748;1590
2168;1580;1736;1569
2133;1599;1751;1576
2080;1584;1734;1596
2057;1576;1720;1609
1992;1590;1731;1576
2055;1607;1716;1588
2005;1583;1712;1568
1865;1615;1743;1572
1615;1591;1726;1568
1382;1599;1726;1560
1172;1611;1775;1552
1036;1595;1720;1568
872;1584;1732;1607
756;1568;1775;1591
752;1591;1744;1580
895;1552;1720;1599
1024;1607;1712;1613
1266;1570;1728;1615
1420;1568;1773;1615
1611;1572;1757;1556
1728;1556;1728;1596
1783;1568;1728;1607
1727;1599;1726;1599
1695;1597;1716;1560
1680;1568;1759;1621
1743;1599;1717;1560
1696;1576;1775;1615
1709;1605;1767;1605
1725;1615;1759;1597
1755;1615;1755;1619
1747;1581;1716;1600
1783;1613;1759;1615
1689;1572;1763;1623
1647;1568;1746;1600
1696;1572;1771;1599
1882;1556;1704;1568
2133;1599;1738;1568
2228;1613;1738;1564
2216;1564;1716;1560
2184;1584;1759;1607
2148;1568;1759;1560
2066;1599;1712;1604
2013;1568;1757;1568
1896;1599;1724;1572
1712;1568;1767;1597
1640;1560;1716;1560
1528;1560;1728;1609
1483;1568;1720;1576
1432;1615;1757;1586
1274;1572;1712;1580
1263;1613;1767;1576
1295;1569;1720;1556
1312;1568;1771;1615
1408;1601;1726;1556
1472;1568;1755;1623
1619;1584;1771;1600
1695;1623;1775;1615
1703;1564;1712;1560
1644;1607;1759;1591
1521;1572;1728;1584
1423;1599;1741;1560
1356;1544;1716;1560
1420;1584;1741;1581
1524;1607;1716;1568
1552;1603;1722;1605
1548;1560;1728;1611
1428;1556;1732;1613
1304;1576;1720;1588
1355;1568;1733;1568
1424;1560;1728;1592
1527;1593;1725;1562
1516;1560;1712;1560
1528;1568;1748;1615
1551;1588;1728;1572
1556;1562;1728;1580
1548;1609;1716;1576
1582;1607;1712;1576
1599;1560;1716;1568
1568;1556;1712;1560
1600;1572;1765;1599
1608;1607;1712;1564
1608;1560;1746;1576
1592;1560;1736;1613
1621;1556;1720;1564
1616;1568;1769;1570
1594;1560;1720;1560
1632;1609;1742;1599
1707;1607;1730;1613
1725;1552;1720;1580
1735;1560;1740;1589
1684;1572;1759;1560
1696;1572;1773;1615
1787;1623;1767;1576
1732;1560;1716;1568
1752;1560;1765;1599
1784;1560;1740;1615
1764;1595;1729;1568
1765;1568;1775;1576
1776;1572;1736;1556
1849;1572;1718;1599
1844;1576;1743;1556
1736;1560;1720;1592
1692;1591;1783;1577
1664;1560;1716;1556
1732;1565;1721;1556
1724;1567;1716;1568
1720;1560;1720;1613
1723;1599;1716;1576
1704;1607;1767;1615
1646;1564;1767;1623
1668;1560;1736;1611
1630;1567;1716;1560
1600;1584;1759;1554
1592;1607;1724;1572
1592;1556;1725;1572
1675;1599;1728;1607
1652;1599;1728;1583
1664;1615;1747;1623
1707;1613;1759;1560
1664;1552;1720;1584
1727;1607;1749;1564
1684;1611;1716;1592
1727;1607;1720;1568
1688;1607;1775;1588
1668;1576;1771;1573
1648;1560;1728;1605
1695;1591;1714;1568
1688;1619;1742;1564
1652;1568;1728;1584
1707;1572;1756;1595
1664;1585;1759;1568
1680;1552;1712;1556
1672;1584;1767;1560
1664;1560;1700;1552
1696;1607;1712;1605
1716;1568;1759;1564
1704;1596;1775;1595
1680;1564;1736;1592
1688;1603;1759;1572
1668;1568;1740;1564
1696;1599;1716;1564
1680;1560;1728;1607
1684;1560;1748;1623
1727;1599;1720;1564
1668;1552;1720;1560
1680;1599;1751;1564
1684;1572;1759;1593
1707;1556;1720;1592
1717;1596;1767;1576
1689;1564;1736;1591
1696;1564;1759;1580
1696;1576;1767;1589
1696;1599;1712;1576
1727;1631;1757;1615
1714;1615;1757;1599
1680;1568;1759;1577
1684;1576;1771;1572
1672;1560;1728;1609
1688;1588;1749;1556
1688;1592;1775;1615
1680;1568;1771;1591
1695;1589;1716;1576
1708;1605;1755;1570
1672;1568;1752;1621
1743;1623;1775;1568
1716;1615;1757;1615
1701;1572;1720;1564
1680;1568;1751;1568
1688;1615;1759;1560
1680;1580;1767;1580
1696;1560;1732;1615
1719;1556;1720;1615
1704;1574;1712;1560
1684;1577;1771;1621
1739;1613;1716;1560
1688;1560;1740;1560
1680;1560;1748;1615
1676;1599;1743;1588
1688;1568;1753;1584
1684;1599;1712;1597
1684;1568;1759;1568
1688;1609;1728;1568
1684;1599;1720;1568
1715;1599;1722;1578
1672;1568;1720;1576
1672;1584;1771;1611
1668;1599;1751;1573
1664;1560;1745;1599
1672;1576;1771;1562
1668;1552;1744;1607
1672;1556;1720;1572
1700;1607;1714;1601
1720;1596;1771;1572
1688;1568;1746;1599
1743;1576;1716;1605
1690;1568;1736;1560
1680;1576;1759;1611
1684;1572;1753;1609
1735;1615;1712;1560
1692;1568;1712;1568
1696;1560;1728;1603
1727;1583;1727;1623
1723;1575;1712;1584
1735;1556;1732;1611
1723;1562;1744;1615
1727;1599;1724;1588
1733;1599;1720;1560
1704;1560;1728;1611
1696;1564;1759;1599
1684;1572;1732;1568
1684;1564;1748;1578
1688;1560;1759;1591
1696;1580;1775;1615
1717;1560;1736;1599
1696;1591;1757;1584
1717;1560;1744;1607
1743;1589;1712;1553
1688;1572;1757;1552
1688;1556;1728;1615
1690;1568;1761;1611
1737;1595;1720;1607
1688;1607;1728;1615
1689;1564;1740;1599
1688;1568;1758;1586
1688;1588;1771;1564
1704;1560;1712;1588
1700;1556;1716;1568
1684;1560;1712;1568
1704;1564;1736;1615
1718;1564;1732;1603
1743;1611;1738;1562
1708;1568;1759;1599
1700;1560;1712;1560
1712;1564;1716;1556
1728;1584;1759;1611
1727;1560;1736;1611
1706;1560;1759;1560
1700;1556;1708;1567
1708;1584;1771;1589
1700;1576;1759;1615
1721;1566;1708;1576
1743;1560;1720;1599
1759;1599;1724;1560
1696;1552;1708;1607
1735;1596;1717;1576
1728;1568;1712;1560
1696;1600;1756;1600
1775;1588;1728;1569
1704;1556;1728;1613
1723;1560;1720;1588
1704;1556;1720;1560
1749;1552;1732;1621
1751;1572;1748;1568
1700;1560;1712;1564
1716;1607;1728;1599
1688;1572;1753;1629
1736;1599;1720;1599
1704;1593;1757;1611
1710;1570;1712;1576
1730;1568;1732;1584
1704;1560;1714;1576
1708;1560;1728;1588
1720;1584;1775;1631
1751;1573;1741;1568
1704;1586;1738;1601
1712;1572;1751;1592
1743;1556;1728;1615
1704;1612;1721;1556
1700;1568;1728;1560
1712;1560;1736;1605
1712;1607;1724;1588
1749;1552;1740;1611
1743;1577;1712;1568
1704;1568;1716;1556
1696;1568;1759;1568
1728;1615;1755;1566
1708;1597;1765;1580
1704;1568;1744;1621
1759;1597;1708;1576
1712;1584;1765;1615
1720;1615;1749;1552
1696;1584;1728;1556
1700;1552;1720;1568
1697;1552;1712;1556
1704;1560;1740;1615
1718;1552;1744;1584
1712;1568;1732;1596
1720;1576;1728;1599
1767;1611;1726;1560
1696;1568;1758;1615
1712;1560;1744;1580
1716;1572;1757;1615
1737;1552;1712;1568
1728;1611;1716;1560
1728;1572;1753;1613
1735;1556;1736;1613
1759;1552;1728;1584
1759;1607;1724;1566
1716;1568;1741;1613
1728;1556;1728;1611
1775;1560;1712;1560
1744;1615;1720;1556
1742;1572;1736;1581
1716;1595;1757;1583
1724;1552;1728;1605
1740;1560;1752;1615
1741;1556;1728;1560
1716;1560;1759;1568
1759;1568;1759;1591
1720;1580;1765;1577
1736;1615;1720;1568
1720;1596;1767;1583
1728;1593;1743;1560
1712;1588;1757;1623
1735;1552;1720;1560
1738;1581;1745;1576
1716;1568;1739;1581
1746;1579;1740;1580
1716;1580;1732;1568
1728;1572;1736;1578
1712;1576;1757;1585
1704;1568;1736;1602
1751;1615;1771;1591
1704;1566;1712;1565
1708;1556;1708;1554
1712;1568;1765;1599
1712;1568;1767;1613
1749;1560;1753;1615
1724;1556;1728;1576
1728;1556;1728;1576
1736;1611;1755;1552
1728;1576;1767;1572
1728;1560;1720;1568
1736;1576;1773;1560
1752;1583;1716;1572
1752;1599;1759;1599
1737;1560;1757;1573
1736;1576;1756;1615
1783;1613;1714;1590
1775;1611;1739;1591
1728;1556;1712;1568
1744;1580;1720;1560
1764;1587;1773;1611
1749;1556;1744;1615
1803;1599;1726;1560
1720;1552;1712;1589
1749;1599;1708;1572
1732;1597;1771;1568
1750;1607;1722;1560
1736;1576;1748;1611
1783;1568;1759;1591
1724;1556;1712;1560
1736;1588;1759;1615
1728;1592;1759;1591
1732;1566;1712;1580
1773;1598;1745;1615
1781;1572;1712;1584
1768;1596;1757;1560
1765;1599;1712;1588
1791;1564;1728;1615
1779;1566;1720;1593
1799;1566;1728;1603
1780;1615;1712;1588
1753;1599;1720;1611
1807;1564;1708;1568
1768;1601;1759;1588
1732;1560;1732;1568
1736;1596;1757;1611
1783;1599;1712;1584
1767;1556;1759;1560
1769;1615;1724;1560
1732;1565;1708;1597
1757;1556;1738;1599
1720;1572;1736;1611
1744;1568;1740;1584
1752;1572;1720;1564
1752;1588;1767;1583
1728;1613;1771;1564
1736;1568;1720;1568
1756;1596;1759;1580
1740;1583;1755;1564
1732;1615;1739;1560
1768;1611;1712;1568
1740;1582;1756;1613
1783;1561;1712;1560
1740;1568;1712;1615
1769;1599;1771;1572
1720;1588;1728;1607
1775;1599;1721;1560
1766;1590;1720;1556
1752;1607;1751;1560
1769;1613;1726;1611
1775;1560;1712;1576
1768;1611;1712;1552
1760;1601;1750;1607
1787;1613;1740;1564
1789;1580;1728;1572
1760;1568;1720;1568
1760;1560;1752;1568
1744;1584;1712;1564
1752;1556;1720;1568
1760;1572;1720;1556
1768;1611;1716;1560
1768;1576;1704;1599
1799;1560;1748;1615
1761;1564;1728;1568
1792;1576;1744;1613
1752;1592;1738;1568
1795;1579;1712;1560
1748;1613;1755;1615
1791;1591;1708;1564
1744;1552;1712;1556
1776;1607;1759;1570
1728;1580;1728;1576
1736;1566;1712;1560
1736;1568;1716;1566
1740;1560;1728;1605
1791;1607;1766;1599
1781;1568;1728;1600
1785;1592;1759;1586
1749;1560;1720;1572
1760;1596;1728;1556
1784;1599;1759;1564
1780;1564;1716;1556
1800;1588;1736;1597
1806;1584;1736;1572
1812;1599;1728;1607
1776;1599;1767;1599
1789;1568;1759;1560
1813;1605;1752;1611
1785;1560;1757;1595
1776;1584;1752;1615
1805;1584;1744;1576
1792;1592;1767;1599
1813;1607;1712;1560
1728;1607;1759;1564
1759;1560;1759;1568
1728;1613;1756;1556
1728;1572;1732;1568
1748;1552;1704;1560
1748;1560;1728;1576
1752;1584;1728;1568
1799;1576;1728;1607
1775;1564;1752;1577
1792;1615;1759;1599
1760;1584;1759;1615
1774;1564;1716;1568
1752;1560;1744;1584
1752;1556;1712;1556
1720;1560;1748;1621
1760;1584;1757;1611
1767;1604;1744;1568
1744;1592;1752;1599
1755;1570;1752;1564
1727;1560;1729;1588
1712;1591;1747;1584
1688;1595;1773;1595
1684;1568;1728;1560
1712;1572;1728;1568
1720;1568;1767;1607
1759;1589;1744;1568
1712;1560;1720;1556
1744;1556;1741;1560
1744;1560;1716;1552
1756;1613;1763;1556
1728;1556;1716;1568
1775;1574;1720;1594
1775;1601;1720;1560
1736;1552;1720;1568
1740;1560;1732;1568
1744;1556;1712;1572
1748;1584;1712;1556
1728;1607;1771;1599
1736;1580;1753;1568
1773;1568;1736;1615
1781;1568;1712;1560
1736;1568;1753;1613
1776;1576;1765;1580
1740;1556;1716;1568
1760;1615;1767;1611
1760;1607;1728;1576
1744;1584;1728;1560
1775;1615;1730;1564
1752;1576;1767;1589
1736;1584;1744;1597
1785;1568;1712;1556
1764;1607;1720;1607
1736;1583;1759;1564
1769;1595;1716;1585
1791;1607;1733;1568
1791;1556;1733;1597
1773;1583;1736;1578
1752;1580;1749;1560
1772;1615;1759;1556
1772;1580;1716;1572
1736;1560;1712;1552
1736;1560;1720;1568
1744;1568;1728;1560
1732;1568;1728;1568
1728;1552;1728;1560
1744;1560;1736;1560
1720;1568;1736;1605
1776;1552;1712;1560
1748;1556;1728;1556
1736;1560;1744;1615
1791;1599;1757;1568
1732;1552;1728;1584
1768;1572;1736;1590
1799;1615;1767;1591
1749;1570;1744;1597
1757;1560;1716;1552
1744;1536;1736;1605
1791;1535;1680;1567
1748;1581;1704;1552
1744;1585;1759;1583
1728;1611;1783;1599
1739;1568;1744;1584
1752;1576;1728;1560
1736;1568;1728;1560
1736;1572;1744;1572
1757;1592;1736;1615
1791;1595;1708;1552
1752;1599;1716;1592
1762;1568;1712;1576
1741;1552;1746;1615
1744;1597;1755;1560
1759;1589;1728;1611
1744;1576;1756;1615
1781;1560;1752;1615
1737;1564;1752;1599
1791;1599;1724;1568
1781;1583;1712;1548
1736;1576;1732;1584
1760;1568;1745;1613
1768;1572;1712;1560
1736;1588;1764;1599
1791;1593;1736;1584
1799;1647;1736;1560
1770;1561;1680;1588
1780;1584;1728;1556
1764;1609;1755;1552
1773;1613;1745;1592
1752;1560;1716;1568
1748;1591;1740;1576
1787;1573;1716;1609
1770;1560;1756;1568
1799;1564;1720;1582
1796;1584;1732;1584
1792;1568;1720;1572
1793;1577;1724;1585
1792;1592;1740;1576
1760;1581;1759;1564
1748;1568;1728;1568
1764;1584;1765;1615
1803;1607;1748;1584
1772;1568;1752;1615
1789;1564;1767;1566
1788;1576;1740;1596
1768;1572;1744;1613
1811;1599;1728;1560
1780;1599;1712;1576
1785;1613;1775;1584
1764;1604;1765;1604
1768;1596;1736;1568
1756;1560;1728;1572
1760;1568;1728;1556
1752;1564;1759;1589
1738;1556;1736;1584
1789;1589;1773;1576
1760;1611;1775;1599
1744;1568;1757;1611
1776;1590;1750;1594
1782;1584;1759;1613
1783;1613;1759;1560
1767;1560;1759;1588
1739;1572;1716;1576
1749;1568;1708;1567
1706;1560;1736;1568
1745;1599;1720;1588
1755;1615;1749;1606
1736;1568;1773;1597
1751;1623;1761;1560
1700;1560;1728;1568
1700;1611;1759;1580
1700;1560;1716;1572
1748;1615;1727;1588
1733;1576;1751;1556
1700;1560;1767;1609
1751;1568;1756;1599
1720;1595;1716;1560
1752;1611;1767;1615
1775;1615;1736;1556
1767;1561;1755;1580
1744;1572;1771;1588
1773;1561;1720;1609
1791;1615;1757;1580
1768;1568;1728;1568
1764;1560;1720;1552
1736;1584;1752;1576
1752;1613;1759;1568
1783;1607;1724;1586
1787;1560;1712;1556
1736;1560;1728;1600
1781;1599;1743;1568
1759;1597;1720;1576
1782;1566;1728;1584
1784;1572;1728;1584
1752;1591;1716;1592
1811;1599;1751;1582
1752;1568;1736;1592
1813;1599;1733;1560
1752;1572;1748;1572
1785;1613;1759;1599
1742;1599;1726;1568
1787;1556;1759;1568
1781;1576;1771;1587
1791;1560;1759;1576
1756;1599;1736;1596
1787;1599;1767;1580
1744;1601;1759;1560
1775;1578;1720;1600
1730;1595;1732;1621
1759;1560;1759;1560
1740;1581;1712;1560
1732;1560;1736;1572
1716;1615;1745;1568
1716;1607;1771;1615
1755;1607;1759;1599
1727;1560;1764;1599
1724;1560;1759;1607
1767;1613;1773;1583
1712;1556;1728;1572
1775;1607;1767;1615
1740;1582;1716;1576
1747;1592;1716;1570
1751;1582;1728;1584
1728;1576;1732;1584
1748;1572;1736;1580
1748;1572;1728;1580
1764;1581;1743;1587
1780;1569;1759;1560
1784;1605;1773;1599
1815;1599;1720;1593
1831;1560;1728;1576
1839;1599;1716;1609
1845;1564;1753;1572
1825;1599;1728;1623
1871;1576;1728;1561
1808;1597;1716;1576
1833;1597;1744;1568
1855;1615;1755;1560
1800;1584;1731;1581
1823;1607;1764;1613
1776;1576;1716;1591
1768;1568;1753;1592
1740;1589;1720;1560
1739;1564;1708;1560
1680;1599;1741;1575
1665;1591;1775;1601
1680;1552;1724;1581
1682;1564;1759;1607
1727;1560;1704;1567
1727;1615;1769;1607
1758;1580;1744;1584
1775;1565;1743;1583
1732;1580;1757;1574
1740;1552;1767;1578
1756;1602;1752;1568
1776;1552;1728;1623
1853;1613;1744;1556
1823;1623;1736;1568
1840;1584;1807;1619
1887;1584;1720;1560
1864;1613;1759;1564
1848;1556;1746;1588
1886;1604;1704;1615
1876;1556;1712;1560
1874;1599;1740;1584
1847;1570;1732;1588
1836;1580;1738;1582
1855;1584;1744;1568
1852;1569;1734;1579
1849;1586;1741;1588
1832;1584;1749;1578
1860;1568;1720;1578
1849;1572;1724;1615
1793;1576;1759;1569
1776;1580;1765;1592
1823;1605;1744;1576
1816;1615;1771;1623
1851;1584;1765;1607
1877;1589;1712;1592
1867;1564;1728;1611
1885;1613;1743;1560
1855;1560;1736;1576
1860;1599;1759;1584
1899;1560;1746;1572
1876;1556;1728;1591
1864;1576;1744;1560
1920;1597;1744;1560
1904;1560;1736;1604
1924;1552;1732;1604
1977;1560;1728;1607
2011;1568;1712;1584
2077;1560;1767;1576
2064;1576;1720;1568
2088;1560;1728;1576
2153;1615;1759;1615
2143;1607;1732;1566
2096;1568;1759;1599
2151;1558;1744;1607
2136;1603;1736;1560
2096;1572;1748;1621
2203;1592;1740;1552
2163;1560;1732;1605
2228;1615;1773;1613
2361;1600;1752;1592
2380;1607;1773;1615
2383;1621;1756;1584
2260;1576;1744;1580
2111;1591;1712;1572
1928;1605;1736;1560
1840;1568;1728;1623
1875;1599;1764;1568
1881;1560;1767;1576
1882;1568;1759;1568
1897;1585;1742;1556
1800;1611;1771;1615
1727;1583;1708;1586
1609;1591;1716;1568
1599;1587;1747;1556
1576;1607;1727;1564
1632;1560;1736;1584
1748;1599;1733;1560
1736;1605;1759;1615
1807;1611;1771;1588
1885;1556;1755;1592
1991;1615;1771;1572
2119;1564;1732;1615
2267;1562;1712;1560
2362;1596;1744;1576
2328;1592;1759;1621
2231;1599;1737;1589
2144;1564;1712;1576
2070;1576;1738;1568
1995;1556;1748;1588
2037;1607;1767;1615
2061;1568;1712;1568
2123;1560;1748;1591
2072;1564;1720;1611
2025;1572;1759;1599
1970;1556;1728;1568
1919;1572;1720;1596
1812;1609;1716;1607
1727;1560;1728;1603
1680;1592;1744;1552
1616;1568;1744;1615
1867;1576;1767;1599
1945;1560;1759;1568
1956;1611;1757;1564
1796;1576;1759;1560
1839;1584;1712;1560
1915;1595;1735;1569
1884;1560;1712;1576
1872;1595;1745;1568
1812;1593;1712;1588
1712;1595;1716;1598
1679;1615;1767;1623
1631;1611;1727;1564
1536;1615;1751;1568
1448;1572;1749;1568
1279;1576;1724;1611
1024;1568;1765;1599
959;1607;1759;1572
940;1568;1745;1588
1008;1572;1733;1568
1017;1568;1712;1613
1141;1560;1740;1603
1224;1597;1732;1592
1364;1599;1732;1560
1524;1560;1755;1570
1648;1586;1767;1615
1815;1599;1759;1577
1872;1560;1759;1595
2023;1613;1783;1599
2127;1576;1712;1596
2259;1581;1759;1569
2300;1595;1755;1615
2399;1584;1757;1560
2476;1560;1757;1548
2369;1556;1732;1599
2221;1585;1712;1566
1935;1593;1743;1564
1640;1556;1741;1609
1503;1580;1759;1591
1300;1556;1720;1588
1183;1568;1732;1597
1160;1564;1744;1599
1327;1583;1712;1560
1416;1567;1728;1599
1424;1593;1721;1568
1387;1599;1771;1615
1343;1599;1708;1560
1268;1597;1712;1560
1280;1556;1712;1568
1339;1589;1740;1570
1460;1599;1716;1584
1727;1580;1759;1623
1902;1568;1759;1560
2024;1598;1773;1615
2271;1599;1724;1573
2303;1599;1759;1615
2143;1613;1751;1570
1868;1589;1751;1593
1783;1611;1708;1568
1528;1588;1712;1560
1496;1560;1751;1568
1583;1556;1757;1569
1572;1584;1753;1560
1596;1611;1712;1593
1695;1577;1759;1568
1694;1599;1727;1570
1625;1560;1711;1556
1440;1560;1720;1604
1335;1568;1732;1588
1211;1615;1755;1573
1215;1599;1751;1560
1343;1560;1712;1576
1535;1576;1736;1568
1724;1580;1749;1584
1920;1568;1740;1560
2041;1611;1759;1572
1948;1588;1716;1568
1864;1552;1712;1568
1728;1576;1754;1597
1624;1568;1708;1556
1508;1560;1716;1576
1471;1607;1759;1583
1343;1613;1767;1593
1327;1557;1712;1560
1292;1576;1759;1573
1304;1556;1704;1560
1392;1580;1732;1568
1597;1615;1741;1572
1595;1560;1704;1560
1570;1584;1712;1568
1656;1576;1738;1605
1792;1568;1753;1599
1968;1615;1730;1564
2167;1560;1720;1605
2376;1568;1727;1576
2477;1584;1716;1572
2479;1564;1720;1570
2431;1615;1712;1560
2256;1591;1724;1564
2143;1576;1737;1584
1976;1599;1712;1560
1920;1556;1708;1560
1808;1572;1728;1593
1733;1564;1759;1599
1599;1556;1744;1568
1416;1572;1759;1564
1384;1585;1712;1576
1479;1599;1713;1564
1516;1568;1771;1607
1568;1591;1739;1599
1594;1586;1736;1580
1609;1584;1730;1581
1690;1581;1737;1596
1780;1593;1751;1568
1821;1580;1720;1576
1799;1572;1712;1599
1648;1589;1736;1599
1493;1615;1722;1560
1424;1592;1712;1588
1575;1583;1727;1599
1751;1594;1737;1568
1819;1607;1714;1556
1792;1568;1759;1568
1848;1585;1728;1599
1808;1591;1716;1607
1720;1599;1712;1568
1560;1568;1716;1564
1519;1584;1717;1568
1492;1568;1755;1568
1499;1591;1741;1590
1356;1580;1740;1573
1412;1578;1736;1580
1382;1578;1722;1584
1408;1576;1733;1584
1450;1580;1728;1580
1452;1576;1736;1576
1476;1576;1728;1576
1529;1582;1740;1584
1567;1580;1737;1581
1620;1561;1728;1568
1641;1568;1759;1560
1624;1552;1739;1574
1623;1556;1712;1560
1531;1615;1728;1556
1288;1576;1724;1574
1076;1615;1727;1587
1117;1568;1720;1556
1256;1560;1728;1568
1436;1599;1733;1572
1522;1599;1712;1572
1548;1560;1712;1587
1503;1580;1728;1568
1481;1605;1712;1605
1524;1572;1724;1568
1599;1599;1704;1560
1554;1591;1705;1568
1496;1580;1741;1576
1624;1595;1738;1623
1741;1589;1714;1568
1818;1580;1741;1587
1887;1580;1740;1578
1884;1564;1730;1588
1912;1580;1740;1584
1945;1570;1736;1586
1921;1592;1743;1582
1829;1580;1730;1584
1670;1570;1736;1584
1529;1576;1724;1572
1364;1576;1730;1585
1288;1572;1728;1568
1263;1560;1728;1613
1301;1585;1724;1568
1364;1576;1773;1593
1535;1615;1716;1564
1616;1584;1736;1615
1703;1599;1755;1577
1628;1568;1720;1572
1651;1572;1728;1576
1615;1564;1729;1581
1596;1572;1733;1599
1582;1556;1720;1583
1568;1599;1720;1576
1559;1574;1712;1560
1536;1568;1712;1560
1536;1597;1728;1572
1516;1597;1746;1576
1504;1591;1722;1580
1608;1572;1759;1615
1644;1568;1759;1568
1656;1611;1704;1560
1624;1560;1740;1599
1636;1609;1712;1576
1680;1576;1759;1560
1736;1599;1716;1568
1784;1584;1751;1599
1768;1560;1720;1560
1781;1552;1712;1560
1816;1564;1759;1599
1839;1576;1708;1568
1817;1560;1712;1560
1684;1584;1716;1587
1705;1576;1728;1572
1688;1581;1738;1580
1681;1573;1736;1578
1705;1580;1736;1581
1728;1556;1744;1599
1704;1560;1728;1603
1735;1566;1720;1560
1705;1584;1751;1560
1759;1560;1728;1580
1737;1580;1733;1599
1712;1597;1736;1613
1723;1564;1704;1568
1688;1584;1732;1592
1684;1577;1744;1565
1680;1588;1712;1604
1680;1597;1732;1560
1733;1560;1759;1564
1756;1611;1720;1599
1757;1576;1741;1568
1752;1611;1716;1603
1716;1568;1728;1560
1696;1591;1742;1556
1696;1599;1716;1611
1680;1599;1712;1599
1728;1576;1759;1595
1708;1577;1712;1576
1757;1587;1728;1568
1732;1588;1739;1587
1757;1564;1767;1591
1743;1578;1712;1560
1753;1585;1716;1611
1720;1594;1749;1564
1728;1568;1751;1553
1737;1560;1704;1560
1760;1560;1728;1584
1769;1556;1706;1552
1704;1572;1708;1568
1680;1599;1728;1599
1672;1556;1712;1556
1664;1580;1759;1599
1711;1597;1751;1594
1687;1591;1712;1548
1727;1611;1739;1568
1700;1592;1759;1552
1712;1595;1720;1613
1684;1576;1720;1572
1712;1607;1716;1568
1712;1576;1759;1564
1708;1603;1724;1560
1720;1609;1728;1577
1736;1560;1712;1568
1736;1572;1759;1596
1779;1560;1716;1560
1716;1572;1720;1572
1759;1577;1712;1560
1716;1576;1720;1572
1759;1568;1728;1582
1716;1570;1732;1576
1712;1572;1744;1623
1717;1568;1712;1556
1710;1572;1712;1576
1712;1599;1720;1597
1708;1596;1720;1580
1743;1597;1716;1607
1747;1583;1708;1568
1696;1594;1759;1564
1732;1601;1716;1576
1744;1576;1716;1568
1757;1613;1712;1568
1728;1585;1728;1568
1704;1584;1747;1556
1700;1597;1724;1592
1700;1552;1712;1560
1692;1556;1708;1560
1700;1588;1759;1599
1690;1576;1740;1560
1680;1568;1759;1615
1702;1556;1716;1552
1721;1570;1712;1560
1680;1552;1712;1568
1720;1591;1728;1603
1696;1568;1767;1564
1708;1556;1716;1560
1682;1560;1712;1564
1704;1576;1744;1602
1727;1615;1720;1568
1700;1599;1720;1607
1684;1586;1712;1588
1719;1580;1759;1619
1697;1560;1716;1560
1684;1588;1732;1560
1672;1560;1704;1556
1676;1568;1736;1601
1703;1592;1771;1552
1668;1560;1712;1584
1696;1608;1759;1593
1676;1577;1712;1568
1684;1599;1712;1576
1723;1615;1712;1594
1682;1584;1716;1589
1711;1588;1740;1568
1692;1568;1741;1581
1682;1556;1712;1568
1704;1568;1737;1580
1688;1597;1749;1580
1672;1599;1740;1592
1696;1572;1736;1585
1706;1582;1744;1576
1684;1570;1746;1603
1692;1584;1750;1581
1705;1572;1734;1576
1693;1572;1734;1592
1700;1573;1720;1586
1725;1576;1739;1597
1711;1588;1742;1584
1704;1584;1740;1584
1709;1576;1732;1572
1692;1574;1736;1581
1716;1576;1736;1576
1701;1576;1736;1569
1709;1572;1736;1584
1725;1607;1773;1572
1701;1568;1744;1584
1716;1560;1712;1560
1704;1584;1761;1615
1700;1564;1744;1599
1689;1568;1704;1552
1672;1576;1716;1588
1723;1599;1744;1605
1689;1556;1712;1584
1688;1599;1749;1615
1692;1587;1712;1568
1712;1611;1716;1607
1676;1588;1720;1592
1708;1560;1720;1568
1672;1568;1712;1568
1727;1599;1732;1615
1680;1603;1712;1607
1664;1576;1716;1568
1672;1568;1712;1584
1720;1607;1714;1584
1711;1564;1712;1560
1688;1552;1716;1560
1680;1568;1704;1564
1704;1611;1751;1561
1692;1560;1720;1560
1720;1588;1728;1560
1676;1560;1716;1572
1727;1564;1712;1552
1684;1593;1712;1580
1727;1574;1712;1568
1688;1607;1727;1572
1734;1568;1712;1568
1696;1580;1712;1576
1743;1615;1720;1607
1708;1583;1732;1576
1696;1607;1771;1611
1740;1584;1704;1568
1700;1596;1736;1572
1704;1603;1749;1552
1704;1591;1744;1607
1684;1611;1744;1607
1688;1564;1732;1595
1700;1599;1728;1569
1724;1586;1739;1572
1716;1576;1728;1576
1704;1574;1733;1583
1705;1576;1732;1572
1696;1581;1755;1592
1700;1570;1737;1598
1704;1599;1741;1556
1696;1611;1716;1605
1727;1560;1712;1560
1692;1560;1716;1584
1759;1613;1736;1588
1758;1603;1753;1609
1720;1568;1749;1560
1757;1599;1720;1591
1741;1556;1767;1581
1712;1615;1728;1568
1728;1582;1740;1592
1750;1581;1733;1584
1740;1584;1740;1580
1712;1576;1728;1568
1716;1570;1728;1591
1724;1561;1759;1599
1698;1556;1708;1556
1692;1556;1728;1568
1704;1594;1728;1564
1723;1607;1744;1568
1728;1607;1751;1615
1743;1569;1728;1568
1716;1580;1769;1607
1724;1599;1720;1613
1720;1560;1716;1568
1736;1609;1755;1593
1717;1581;1708;1572
1752;1615;1722;1605
1744;1560;1728;1576
1712;1568;1708;1572
1759;1599;1716;1592
1771;1611;1712;1568
1745;1609;1757;1580
1728;1615;1714;1584
1773;1560;1716;1593
1759;1591;1712;1589
1741;1560;1712;1560
1712;1576;1720;1560
1725;1574;1720;1568
1712;1599;1720;1591
1752;1607;1720;1568
1744;1599;1736;1598
1775;1615;1716;1602
1728;1567;1744;1605
1712;1603;1722;1604
1720;1584;1757;1599
1712;1580;1716;1560
1716;1592;1720;1594
1743;1556;1732;1560
1712;1600;1771;1599
1720;1552;1716;1568
1728;1603;1744;1596
1773;1615;1720;1625
1720;1569;1729;1584
1728;1568;1732;1572
1741;1576;1736;1576
1744;1576;1732;1605
1728;1593;1737;1597
1728;1568;1720;1560
1728;1615;1743;1560
1728;1595;1744;1576
1728;1607;1736;1568
1767;1574;1712;1572
1728;1556;1716;1560
1736;1556;1704;1552
1728;1576;1744;1568
1728;1567;1712;1560
1732;1552;1716;1568
1744;1560;1712;1552
1740;1580;1744;1615
1741;1568;1728;1584
1744;1611;1728;1572
1732;1599;1749;1585
1732;1552;1744;1576
1728;1611;1728;1584
1716;1607;1759;1587
1743;1599;1712;1560
1696;1566;1736;1615
1712;1556;1712;1560
1700;1560;1712;1584
1764;1605;1771;1613
1759;1599;1712;1568
1756;1608;1773;1621
1773;1599;1718;1561
1728;1564;1736;1607
1751;1599;1720;1556
1728;1568;1736;1611
1736;1580;1759;1560
1728;1576;1759;1574
1740;1615;1717;1560
1736;1605;1720;1560
1736;1560;1728;1599
1763;1568;1769;1613
1791;1615;1738;1560
1744;1588;1732;1556
1744;1597;1737;1556
1752;1597;1712;1556
1756;1560;1720;1572
1792;1607;1755;1568
1796;1568;1753;1568
1800;1615;1720;1552
1764;1592;1773;1564
1756;1572;1769;1605
1808;1615;1759;1564
1736;1568;1728;1596
1752;1592;1773;1599
1704;1560;1757;1552
1716;1599;1712;1568
1728;1607;1751;1570
1720;1595;1720;1611
1700;1560;1744;1615
1703;1564;1728;1605
1727;1584;1744;1613
1725;1605;1765;1572
1680;1611;1727;1570
1700;1599;1728;1613
1692;1603;1775;1611
1751;1599;1712;1561
1688;1552;1738;1612
1728;1601;1771;1564
1747;1615;1749;1564
1712;1560;1732;1580
1746;1596;1728;1584
1712;1576;1754;1607
1739;1599;1712;1568
1728;1592;1775;1570
1696;1572;1753;1621
1744;1593;1716;1560
1712;1578;1759;1595
1706;1548;1744;1611
1720;1613;1757;1576
1728;1585;1728;1580
1736;1572;1748;1609
1775;1572;1720;1588
1759;1560;1759;1615
1732;1607;1725;1576
1767;1580;1720;1576
1744;1572;1728;1584
1781;1560;1728;1568
1728;1560;1749;1582
1716;1593;1783;1615
1760;1588;1752;1597
1751;1560;1712;1574
1716;1604;1767;1560
1716;1560;1728;1600
1732;1576;1769;1572
1728;1552;1712;1560
1732;1607;1759;1560
1728;1588;1759;1615
1775;1615;1743;1564
1716;1599;1716;1580
1764;1611;1722;1562
1720;1556;1712;1613
1757;1591;1716;1560
1736;1607;1720;1576
1789;1611;1712;1568
1760;1556;1708;1556
1752;1560;1744;1568
1788;1591;1720;1592
1815;1567;1716;1576
1776;1599;1728;1603
1807;1595;1714;1568
1813;1623;1735;1564
1800;1615;1712;1568
1792;1615;1771;1613
1770;1572;1712;1568
1780;1601;1751;1578
1740;1615;1759;1572
1728;1560;1732;1605
1759;1615;1767;1595
1712;1599;1747;1570
1706;1611;1716;1572
1712;1615;1727;1599
1713;1568;1712;1576
1783;1611;1713;1560
1744;1611;1708;1568
1760;1611;1712;1556
1736;1572;1773;1564
1728;1611;1720;1595
1740;1572;1737;1576
1712;1613;1743;1574
1680;1580;1767;1599
1668;1560;1732;1613
1684;1568;1748;1613
1717;1572;1712;1611
1664;1576;1748;1615
1640;1568;1765;1611
1666;1556;1744;1565
1684;1599;1767;1588
1688;1595;1759;1568
1696;1560;1732;1604
1747;1576;1728;1607
1701;1560;1712;1560
1704;1560;1728;1588
1755;1599;1716;1560
1708;1560;1732;1605
1738;1560;1752;1607
1728;1568;1759;1591
1728;1556;1720;1607
1757;1599;1721;1556
1712;1599;1727;1556
1720;1560;1740;1605
1783;1615;1751;1576
1728;1599;1716;1584
1771;1568;1767;1561
1736;1572;1736;1615
1746;1568;1767;1568
1755;1584;1773;1576
1712;1576;1744;1600
1744;1600;1775;1599
1728;1552;1712;1584
1740;1596;1749;1568
1720;1560;1736;1615
1775;1573;1712;1568
1728;1556;1712;1560
1728;1597;1767;1556
1728;1613;1725;1564
1728;1568;1744;1584
1764;1605;1759;1572
1728;1574;1708;1556
1736;1552;1728;1576
1752;1611;1716;1568
1771;1560;1728;1605
1769;1583;1728;1613
1728;1556;1744;1599
1759;1568;1712;1568
1728;1599;1736;1580
1760;1599;1720;1556
1728;1572;1704;1569
1728;1560;1752;1597
1732;1560;1744;1607
1728;1556;1728;1580
1768;1629;1773;1589
1736;1607;1771;1565
1732;1596;1751;1560
1767;1615;1738;1552
1736;1599;1759;1561
1748;1582;1744;1595
1728;1593;1767;1599
1728;1568;1736;1560
1736;1568;1712;1556
1728;1584;1716;1560
1736;1564;1712;1560
1736;1600;1759;1566
1720;1568;1749;1595
1728;1560;1736;1607
1783;1572;1720;1572
1728;1572;1744;1615
1755;1560;1708;1574
1728;1568;1754;1613
1781;1611;1714;1575
1728;1584;1759;1568
1732;1611;1781;1572
1720;1609;1771;1568
1728;1580;1767;1566
1748;1595;1716;1560
1728;1584;1765;1595
1728;1552;1746;1587
1761;1585;1755;1568
1769;1568;1716;1585
1775;1623;1767;1591
1730;1560;1712;1560
1728;1552;1712;1560
1732;1560;1740;1604
1773;1556;1708;1572
1736;1584;1759;1560
1720;1576;1767;1569
1728;1605;1743;1564
1758;1597;1748;1576
1728;1607;1720;1576
1754;1615;1735;1623
1765;1615;1737;1568
1728;1565;1712;1560
1736;1599;1759;1564
1714;1568;1759;1623
1759;1576;1728;1576
1741;1599;1712;1560
1759;1568;1765;1568
1728;1615;1724;1560
1746;1580;1740;1599
1708;1556;1759;1569
1728;1611;1712;1584
1744;1615;1722;1599
1728;1576;1759;1572
1728;1596;1763;1611
1728;1569;1769;1623
1751;1568;1732;1615
1773;1593;1712;1568
1712;1552;1767;1599
1732;1586;1704;1568
1720;1596;1759;1590
1720;1568;1753;1599
1728;1572;1759;1578
1740;1608;1758;1615
1767;1599;1704;1575
1716;1552;1712;1560
1712;1552;1720;1568
1728;1576;1743;1607
1712;1568;1744;1615
1749;1573;1712;1556
1712;1556;1728;1580
1716;1564;1712;1584
1740;1600;1757;1564
1752;1585;1762;1556
1768;1599;1716;1560
1728;1584;1732;1585
1775;1560;1758;1575
1743;1556;1712;1556
1720;1560;1728;1560
1732;1556;1736;1568
1720;1556;1716;1568
1728;1560;1708;1568
1728;1572;1736;1613
1775;1568;1744;1568
1720;1552;1753;1621
1783;1560;1740;1595
1744;1589;1769;1595
1736;1568;1720;1608
1791;1564;1728;1609
1760;1584;1759;1572
1776;1567;1755;1572
1798;1599;1727;1568
1776;1609;1757;1604
1760;1560;1728;1612
1802;1611;1767;1623
1792;1576;1759;1588
1792;1607;1728;1564
1776;1584;1752;1596
1764;1604;1756;1607
1752;1560;1744;1613
1783;1565;1749;1590
1772;1580;1742;1584
1744;1568;1737;1607
1720;1576;1755;1607
1767;1564;1771;1572
1757;1599;1747;1560
1728;1576;1728;1592
1752;1572;1771;1595
1752;1560;1753;1600
1736;1560;1748;1568
1716;1560;1771;1580
1748;1570;1720;1578
1747;1595;1745;1568
1728;1599;1720;1603
1712;1572;1759;1623
1749;1595;1728;1597
1753;1596;1728;1568
1749;1615;1775;1615
1716;1556;1767;1568
1730;1580;1716;1568
1688;1572;1775;1576
1720;1608;1737;1607
1771;1599;1759;1623
1767;1599;1759;1556
1696;1560;1720;1560
1676;1560;1712;1552
1708;1611;1757;1576
1696;1560;1757;1599
1704;1560;1728;1568
1688;1552;1746;1572
1700;1556;1753;1572
1741;1586;1716;1611
1711;1556;1767;1583
1712;1560;1753;1607
1759;1580;1720;1603
1745;1556;1771;1572
1753;1595;1712;1560
1732;1607;1724;1568
1747;1586;1724;1560
1728;1580;1775;1615
1735;1572;1712;1597
1728;1568;1771;1613
1712;1556;1773;1568
1775;1556;1757;1568
1775;1564;1751;1591
1748;1560;1708;1560
1764;1576;1728;1568
1807;1560;1759;1572
1807;1568;1716;1588
1805;1584;1739;1581
1804;1584;1740;1592
1829;1578;1732;1580
1820;1572;1732;1572
1824;1573;1735;1591
1842;1581;1721;1577
1837;1597;1747;1584
1808;1580;1744;1576
1796;1562;1728;1584
1788;1564;1740;1594
1796;1572;1728;1599
1796;1568;1730;1609
1775;1560;1737;1581
1736;1585;1741;1596
1741;1564;1757;1576
1771;1560;1724;1607
1791;1560;1759;1584
1760;1568;1736;1576
1776;1568;1736;1568
1780;1556;1736;1598
1800;1560;1732;1611
1839;1568;1736;1607
1832;1599;1767;1615
1823;1584;1781;1619
1826;1576;1771;1592
1828;1552;1754;1584
1864;1568;1769;1600
1891;1564;1767;1572
1860;1585;1736;1591
1893;1572;1704;1577
1879;1597;1716;1599
1824;1572;1752;1576
1840;1580;1752;1592
1872;1560;1728;1576
1877;1560;1765;1590
1840;1564;1728;1596
1877;1599;1726;1564
1887;1566;1752;1621
1832;1560;1757;1621
1835;1560;1759;1623
1819;1621;1759;1597
1736;1609;1752;1588
1692;1568;1748;1607
1664;1556;1752;1623
1672;1619;1759;1621
1668;1568;1716;1580
1672;1568;1759;1611
1648;1580;1775;1599
1671;1560;1724;1584
1663;1564;1708;1560
1628;1591;1743;1568
1610;1607;1767;1615
1655;1552;1752;1568
1679;1580;1775;1615
1747;1611;1728;1592
1744;1560;1771;1570
1796;1615;1771;1623
1869;1568;1755;1564
1887;1581;1722;1576
1919;1556;1740;1584
1926;1576;1733;1581
1941;1580;1740;1588
1958;1584;1736;1596
1928;1568;1722;1581
1887;1581;1733;1588
1844;1580;1736;1592
1841;1580;1728;1593
1792;1607;1712;1552
1768;1552;1744;1597
1736;1560;1729;1576
1747;1564;1759;1572
1755;1615;1771;1615
1704;1552;1738;1576
1696;1576;1759;1568
1752;1615;1758;1613
1787;1564;1765;1576
1748;1560;1775;1576
1740;1615;1771;1623
1743;1599;1759;1623
1735;1568;1732;1572
1720;1572;1732;1585
1709;1576;1728;1576
1724;1580;1734;1580
1708;1584;1741;1576
1680;1564;1728;1580
1629;1589;1754;1588
1610;1560;1720;1607
1611;1556;1743;1560
1587;1588;1728;1590
1504;1586;1783;1615
1521;1615;1728;1568
1536;1556;1765;1615
1616;1560;1728;1568
1664;1568;1767;1623
1741;1573;1728;1584
1740;1615;1783;1623
1752;1556;1744;1584
1768;1572;1759;1560
1791;1568;1708;1568
1728;1564;1767;1611
1751;1599;1775;1599
1753;1560;1769;1577
1840;1552;1740;1572
1939;1591;1751;1584
1992;1584;1726;1568
2063;1564;1759;1560
2064;1560;1771;1581
2104;1576;1749;1567
2181;1560;1748;1565
2280;1568;1720;1597
2303;1602;1752;1621
2315;1582;1743;1615
2303;1599;1775;1584
2256;1560;1765;1611
2307;1611;1775;1611
2254;1568;1773;1611
2255;1560;1765;1599
2092;1568;1767;1578
1956;1568;1767;1615
1919;1607;1775;1600
1812;1556;1728;1607
1760;1560;1767;1566
1728;1560;1767;1602
1703;1576;1732;1568
1695;1615;1775;1585
1688;1568;1740;1596
1700;1560;1753;1564
1685;1568;1736;1560
1641;1607;1765;1589
1651;1591;1759;1599
1671;1570;1745;1581
1648;1564;1716;1568
1781;1583;1714;1611
1948;1588;1773;1592
2204;1560;1736;1568
2332;1556;1757;1576
2464;1560;1752;1592
2576;1556;1744;1613
2719;1599;1775;1615
2802;1599;1775;1568
2800;1560;1767;1583
2736;1576;1762;1568
2696;1568;1747;1552
2528;1584;1759;1592
2444;1572;1751;1568
2261;1613;1773;1609
2024;1584;1773;1599
1680;1556;1749;1568
1464;1581;1736;1615
1478;1560;1747;1599
1672;1560;1743;1568
1855;1556;1759;1564
1917;1621;1775;1615
1984;1584;1740;1568
2047;1560;1728;1602
1952;1568;1757;1568
1874;1584;1720;1560
1872;1560;1728;1607
1906;1568;1771;1595
1888;1568;1728;1580
1851;1556;1759;1581
1836;1599;1767;1607
1894;1607;1765;1631
1919;1611;1759;1564
1900;1560;1744;1609
1880;1560;1744;1568
1896;1599;1757;1580
1864;1592;1744;1568
1749;1607;1769;1596
1632;1568;1755;1564
1563;1568;1736;1576
1544;1576;1716;1560
1560;1560;1744;1623
1487;1605;1773;1615
1328;1584;1773;1578
1275;1615;1771;1588
1197;1588;1756;1572
1056;1576;1759;1576
959;1560;1712;1611
903;1580;1751;1564
852;1556;1757;1615
983;1589;1775;1599
1183;1560;1823;1623
1279;1560;1737;1593
1351;1576;1740;1596
1368;1584;1750;1596
1416;1588;1712;1615
1687;1615;1752;1560
1804;1568;1751;1568
1805;1613;1775;1615
1783;1599;1759;1598
1860;1597;1735;1581
2073;1556;1775;1591
2113;1552;1759;1576
1996;1560;1759;1562
1888;1572;1753;1560
1864;1560;1716;1599
1904;1580;1744;1560
1864;1580;1779;1615
1903;1583;1727;1568
2020;1597;1724;1599
2040;1584;1751;1560
2008;1568;1767;1599
1897;1580;1740;1568
1935;1593;1720;1605
1918;1582;1739;1560
1811;1599;1775;1609
1647;1580;1773;1615
1575;1599;1730;1576
1615;1548;1712;1565
1628;1552;1727;1581
1712;1568;1727;1576
1804;1599;1712;1592
1866;1568;1759;1560
1680;1560;1721;1568
1360;1590;1759;1577
1100;1564;1771;1615
1119;1609;1749;1556
1200;1556;1759;1568
1431;1597;1745;1568
1371;1585;1750;1584
1080;1564;1728;1582
976;1584;1743;1599
1024;1560;1728;1556
1092;1592;1759;1576
1280;1560;1728;1568
1583;1572;1732;1615
1911;1599;1771;1576
2010;1568;1757;1572
2014;1593;1759;1599
1997;1580;1736;1580
1951;1564;1721;1615
1913;1588;1756;1592
1931;1585;1767;1580
1999;1560;1704;1576
2055;1599;1759;1564
1946;1568;1708;1580
1936;1590;1724;1568
1832;1599;1720;1611
1784;1568;1755;1564
1736;1556;1732;1615
1743;1556;1708;1560
1723;1573;1743;1576
1764;1588;1712;1584
1787;1560;1739;1594
1720;1599;1724;1564
1624;1552;1712;1588
1523;1615;1773;1607
1375;1599;1720;1599
1188;1599;1727;1560
1256;1572;1757;1556
1378;1588;1759;1552
1448;1607;1773;1623
1583;1592;1728;1572
1612;1572;1720;1578
1468;1568;1743;1597
1368;1560;1751;1623
1511;1607;1721;1562
1579;1552;1737;1597
1552;1576;1724;1585
1576;1593;1704;1599
1620;1568;1743;1560
1816;1560;1746;1582
1844;1548;1708;1564
1872;1585;1730;1592
1834;1585;1708;1568
1851;1607;1727;1574
1871;1609;1743;1613
1855;1591;1713;1560
1780;1584;1759;1615
1891;1576;1773;1623
1983;1599;1755;1566
1908;1560;1767;1560
1972;1560;1765;1560
2072;1572;1759;1564
2104;1599;1751;1569
2040;1584;1712;1600
1956;1591;1728;1615
2087;1556;1712;1560
2072;1552;1727;1560
2020;1552;1767;1615
2143;1568;1759;1560
2162;1560;1736;1611
2195;1560;1728;1580
2109;1599;1727;1560
1808;1615;1759;1580
1595;1560;1716;1615
1503;1611;1767;1605
1517;1581;1728;1615
1535;1584;1759;1556
1344;1560;1720;1609
1266;1568;1737;1584
1188;1595;1740;1576
1213;1584;1720;1615
1307;1552;1741;1554
1376;1572;1759;1560
1376;1560;1728;1589
1456;1584;1716;1560
1603;1572;1742;1568
1751;1581;1729;1556
1656;1556;1712;1552
1460;1552;1737;1574
1311;1560;1712;1566
1176;1568;1738;1580
1184;1561;1746;1607
1225;1552;1728;1576
1271;1599;1712;1568
1225;1605;1771;1583
1208;1586;1716;1621
1339;1583;1752;1568
1408;1568;1749;1568
1575;1568;1755;1568
1664;1568;1759;1560
1716;1576;1759;1583
1774;1580;1712;1597
1876;1580;1704;1592
2001;1588;1728;1572
2150;1590;1728;1599
2239;1560;1740;1615
2319;1615;1755;1561
2235;1568;1759;1611
2155;1568;1755;1568
1967;1568;1721;1596
1740;1560;1722;1576
1591;1564;1706;1564
1529;1597;1754;1587
1437;1560;1747;1556
1320;1576;1759;1629
1392;1568;1704;1568
1504;1560;1728;1584
1659;1577;1734;1560
1880;1605;1724;1576
2007;1556;1708;1560
2050;1584;1751;1573
1973;1591;1781;1615
1805;1572;1728;1585
1712;1607;1712;1568
1727;1556;1743;1615
1668;1592;1740;1599
1615;1560;1704;1564
1504;1576;1749;1560
1439;1591;1783;1560
1424;1576;1724;1584
1469;1560;1773;1568
1432;1568;1742;1584
1480;1587;1716;1560
1631;1597;1714;1560
1664;1592;1751;1560
1648;1598;1712;1588
1623;1560;1759;1560
1496;1556;1720;1568
1455;1615;1743;1621
1375;1560;1758;1564
1343;1553;1712;1568
1432;1556;1716;1552
1484;1588;1713;1576
1599;1584;1712;1556
1656;1607;1735;1560
1648;1554;1716;1560
1656;1560;1767;1575
1623;1572;1753;1588
1604;1568;1728;1599
1604;1578;1749;1579
1565;1560;1753;1597
1583;1615;1767;1567
1620;1568;1749;1585
1696;1568;1732;1588
1736;1580;1736;1584
1756;1572;1739;1586
1805;1576;1736;1572
1812;1568;1732;1588
1832;1586;1738;1588
1816;1576;1740;1576
1818;1577;1738;1580
1823;1581;1733;1589
1807;1564;1759;1562
1720;1552;1712;1584
1695;1615;1747;1568
1631;1615;1775;1597
1600;1560;1700;1554
1631;1597;1727;1597
1596;1556;1712;1560
1556;1576;1712;1580
1627;1599;1720;1599
1618;1552;1712;1560
1655;1607;1737;1560
1632;1552;1708;1560
1663;1560;1752;1611
1701;1556;1712;1568
1743;1568;1757;1572
1725;1560;1712;1560
1740;1560;1732;1584
1783;1615;1716;1576
1741;1594;1720;1599
1728;1607;1728;1562
1759;1584;1728;1564
1759;1588;1720;1599
1712;1599;1728;1613
1743;1599;1737;1564
1735;1572;1716;1605
1732;1556;1765;1599
1728;1576;1775;1613
1775;1607;1732;1570
1736;1611;1716;1580
1759;1595;1749;1568
1751;1572;1713;1615
1759;1611;1712;1599
1743;1568;1712;1568
1783;1594;1744;1568
1742;1556;1708;1552
1729;1615;1751;1568
1759;1599;1700;1556
1716;1552;1706;1560
1747;1609;1704;1584
1719;1552;1708;1552
1700;1560;1712;1552
1720;1607;1704;1560
1727;1570;1712;1568
1725;1593;1757;1560
1719;1572;1720;1597
1712;1595;1757;1584
1708;1583;1740;1599
1733;1564;1736;1565
1754;1611;1712;1560
1712;1552;1708;1560
1775;1609;1720;1560
1732;1560;1704;1584
1767;1568;1739;1568
1767;1580;1752;1560
1716;1572;1736;1615
1783;1589;1745;1599
1723;1556;1708;1560
1704;1548;1751;1556
1712;1576;1743;1564
1759;1560;1738;1615
1767;1568;1732;1592
1743;1556;1728;1596
1759;1591;1732;1564
1720;1584;1728;1607
1759;1613;1737;1560
1688;1552;1728;1597
1704;1560;1712;1592
1755;1586;1745;1580
1700;1576;1743;1568
1751;1572;1736;1615
1741;1600;1733;1576
1715;1568;1708;1560
1700;1560;1725;1556
1725;1564;1698;1556
1696;1568;1758;1609
1739;1568;1736;1591
1711;1599;1737;1561
1727;1572;1754;1560
1688;1607;1716;1564
1692;1544;1712;1560
1712;1576;1757;1560
1680;1584;1749;1568
1696;1591;1728;1606
1709;1560;1720;1592
1751;1576;1720;1560
1720;1572;1712;1572
1759;1568;1704;1560
1724;1556;1712;1554
1712;1568;1712;1560
1696;1560;1721;1587
1727;1599;1716;1560
1696;1552;1704;1552
1688;1599;1716;1599
1708;1580;1712;1576
1723;1560;1708;1556
1696;1568;1712;1584
1727;1615;1708;1564
1720;1560;1704;1564
1736;1601;1716;1556
1696;1568;1732;1593
1716;1556;1712;1592
1695;1568;1728;1588
1759;1568;1728;1607
1696;1592;1716;1576
1743;1560;1713;1573
1739;1581;1714;1585
1692;1599;1720;1599
1722;1568;1751;1595
1705;1615;1709;1556
1741;1572;1755;1560
1737;1564;1755;1568
1696;1552;1712;1568
1733;1611;1708;1560
1704;1568;1712;1560
1696;1590;1712;1568
1749;1615;1733;1556
1682;1568;1720;1568
1704;1568;1708;1560
1712;1597;1716;1568
1720;1568;1704;1560
1743;1611;1717;1566
1743;1615;1759;1564
1684;1568;1716;1584
1751;1560;1754;1597
1733;1572;1743;1584
1716;1568;1736;1611
1708;1584;1726;1568
1720;1596;1720;1600
1721;1570;1722;1569
1712;1568;1748;1611
1751;1599;1712;1560
1704;1576;1755;1593
1767;1592;1759;1599
1714;1572;1712;1560
1743;1599;1712;1576
1727;1572;1716;1568
1733;1615;1708;1560
1704;1552;1708;1568
1755;1584;1743;1585
1696;1596;1741;1595
1731;1584;1728;1568
1711;1599;1714;1552
1719;1560;1728;1568
1689;1593;1712;1568
1688;1609;1716;1597
1684;1552;1721;1595
1713;1564;1720;1576
1707;1599;1712;1599
1664;1576;1759;1599
1678;1568;1712;1568
1707;1615;1712;1568
1672;1556;1712;1560
1688;1611;1716;1584
1743;1572;1721;1592
1737;1556;1712;1568
1748;1576;1708;1583
1771;1599;1748;1560
1712;1568;1720;1568
1759;1577;1704;1568
1775;1615;1736;1601
1759;1560;1728;1576
1752;1611;1767;1560
1700;1580;1771;1615
1759;1578;1748;1568
1727;1560;1755;1576
1692;1552;1728;1607
1719;1578;1728;1609
1698;1560;1712;1560
1727;1599;1728;1568
1739;1568;1767;1568
1688;1568;1708;1564
1751;1607;1720;1568
1727;1568;1759;1599
1692;1560;1749;1569
1708;1588;1755;1564
1728;1607;1728;1607
1727;1576;1716;1584
1732;1560;1720;1588
1751;1591;1728;1583
1744;1597;1726;1564
1698;1564;1716;1562
1711;1568;1744;1587
1706;1560;1765;1564
1684;1603;1757;1611
1723;1613;1759;1613
1672;1560;1728;1598
1727;1605;1759;1581
1664;1552;1728;1605
1727;1607;1712;1576
1757;1586;1728;1584
1773;1576;1712;1552
1742;1562;1748;1583
1740;1574;1712;1580
1807;1578;1748;1564
1815;1568;1732;1576
1792;1568;1712;1568
1839;1564;1704;1564
1800;1564;1752;1615
1847;1607;1716;1568
1796;1568;1712;1568
1756;1584;1753;1599
1728;1576;1712;1552
1753;1568;1704;1552
1696;1556;1744;1613
1727;1589;1708;1560
1696;1560;1743;1596
1680;1599;1720;1584
1719;1560;1757;1576
1728;1587;1746;1580
1704;1576;1724;1572
1722;1589;1755;1572
1728;1572;1728;1576
1766;1560;1704;1560
1740;1560;1732;1607
1754;1588;1720;1589
1740;1576;1712;1564
1760;1609;1727;1568
1752;1568;1704;1584
1781;1572;1712;1568
1738;1561;1757;1568
1759;1560;1712;1556
1712;1568;1720;1602
1775;1599;1712;1588
1791;1564;1728;1599
1764;1607;1712;1556
1783;1566;1759;1560
1815;1599;1712;1568
1736;1560;1712;1572
1787;1588;1727;1560
1756;1592;1712;1568
1803;1560;1736;1609
1773;1576;1740;1613
1758;1560;1732;1611
1728;1568;1708;1552
1708;1572;1704;1572
1684;1589;1748;1568
1677;1584;1754;1560
1688;1556;1720;1592
1682;1577;1735;1556
1673;1560;1759;1566
1682;1615;1720;1602
1704;1564;1732;1607
1696;1552;1712;1556
1743;1615;1712;1576
1711;1552;1720;1552
1684;1552;1748;1591
1688;1552;1712;1556
1676;1560;1733;1556
1696;1560;1712;1560
1704;1560;1720;1560
1737;1572;1716;1576
1757;1568;1704;1552
1720;1584;1728;1584
1736;1556;1732;1613
1764;1575;1716;1576
1744;1599;1716;1593
1744;1568;1728;1568
1765;1560;1739;1593
1728;1575;1716;1576
1764;1593;1752;1564
1777;1611;1723;1560
1720;1576;1708;1568
1696;1604;1769;1584
1680;1592;1728;1589
1727;1605;1740;1588
1733;1613;1712;1572
1735;1611;1767;1615
1743;1568;1728;1607
1716;1560;1712;1568
1696;1568;1767;1576
1700;1560;1700;1560
1700;1560;1740;1594
1732;1568;1729;1611
1775;1605;1712;1560
1759;1613;1748;1584
1763;1588;1712;1552
1721;1560;1712;1572
1752;1615;1724;1580
1755;1561;1728;1560
1705;1560;1759;1560
1728;1609;1751;1552
1720;1560;1758;1599
1708;1564;1720;1580
1749;1615;1712;1600
1708;1552;1728;1568
1696;1568;1732;1589
1736;1568;1771;1564
1700;1568;1742;1568
1712;1568;1740;1600
1747;1584;1712;1572
1728;1584;1716;1568
1700;1568;1757;1613
1739;1593;1732;1607
1726;1568;1757;1556
1708;1584;1736;1568
1700;1568;1748;1615
1751;1623;1724;1572
1755;1577;1712;1568
1700;1568;1712;1568
1712;1572;1753;1599
1725;1589;1720;1576
1712;1568;1712;1608
1759;1599;1700;1560
1708;1564;1757;1560
1744;1613;1732;1580
1759;1572;1751;1592
1720;1568;1755;1560
1757;1615;1744;1605
1759;1605;1773;1615
1718;1580;1759;1560
1708;1601;1726;1568
1712;1568;1736;1600
1747;1560;1720;1560
1739;1615;1736;1596
1720;1560;1712;1564
1716;1560;1732;1607
1737;1568;1746;1613
1759;1560;1729;1576
1734;1587;1741;1588
1748;1593;1716;1605
1708;1603;1759;1611
1727;1600;1747;1560
1754;1607;1752;1615
1737;1568;1767;1566
1728;1588;1754;1574
1752;1615;1728;1576
1720;1584;1716;1560
1720;1568;1728;1568
1732;1588;1712;1592
1765;1592;1716;1560
1720;1592;1728;1576
1728;1584;1720;1556
1708;1544;1712;1576
1716;1572;1771;1576
1721;1556;1720;1600
1728;1560;1728;1600
1749;1561;1759;1564
1744;1594;1728;1584
1759;1565;1747;1576
1759;1566;1716;1560
1720;1568;1704;1560
1712;1568;1735;1585
1720;1556;1728;1584
1765;1592;1720;1560
1764;1579;1728;1605
1759;1560;1720;1607
1716;1585;1749;1615
1762;1561;1751;1590
1752;1582;1737;1590
1700;1588;1740;1584
1740;1580;1724;1576
1736;1607;1775;1599
1745;1591;1728;1615
1732;1556;1747;1584
1728;1564;1749;1580
1742;1599;1759;1599
1759;1615;1741;1560
1720;1584;1732;1599
1753;1599;1712;1576
1728;1568;1720;1568
1744;1584;1704;1560
1720;1580;1759;1588
1737;1615;1771;1605
1787;1599;1759;1564
1720;1560;1748;1615
1759;1561;1734;1588
1744;1568;1732;1589
1736;1581;1736;1599
1752;1580;1740;1584
1744;1568;1722;1591
1728;1568;1704;1560
1716;1568;1741;1568
1767;1560;1736;1599
1767;1556;1732;1596
1751;1593;1740;1589
1748;1560;1728;1576
1744;1578;1720;1583
1797;1564;1725;1580
1752;1572;1728;1568
1740;1589;1746;1584
1748;1576;1728;1572
1744;1583;1756;1572
1787;1588;1759;1552
1752;1599;1716;1564
1770;1584;1728;1568
1720;1564;1736;1599
1759;1586;1736;1572
1775;1589;1712;1572
1779;1582;1755;1573
1764;1588;1720;1572
1736;1580;1712;1552
1736;1556;1775;1556
1736;1584;1712;1568
1736;1576;1767;1581
1745;1576;1756;1568
1764;1591;1757;1583
1759;1615;1733;1588
1781;1607;1767;1593
1732;1568;1728;1580
1777;1613;1720;1578
1764;1596;1737;1568
1765;1576;1724;1560
1728;1598;1745;1584
1728;1582;1712;1596
1735;1583;1728;1615
1767;1623;1720;1568
1712;1596;1716;1604
1759;1572;1724;1580
1751;1580;1740;1572
1739;1589;1753;1568
1759;1580;1753;1564
1712;1580;1767;1560
1708;1568;1720;1584
1704;1556;1753;1596
1712;1611;1735;1560
1728;1552;1720;1605
1747;1556;1748;1606
1779;1601;1728;1584
1775;1627;1769;1615
1714;1580;1728;1580
1760;1615;1716;1548
1720;1572;1759;1560
1720;1576;1728;1568
1720;1560;1759;1560
1720;1584;1712;1552
1728;1568;1756;1611
1759;1580;1728;1607
1712;1584;1756;1611
1720;1560;1759;1568
1748;1615;1744;1592
1759;1599;1720;1590
1757;1615;1740;1584
1757;1589;1744;1587
1732;1615;1744;1605
1763;1591;1712;1576
1765;1615;1765;1588
1712;1552;1740;1619
1767;1615;1732;1580
1749;1621;1736;1552
1704;1556;1755;1564
1744;1613;1728;1560
1716;1572;1739;1576
1767;1582;1728;1588
1744;1576;1759;1564
1764;1615;1759;1600
1756;1592;1740;1572
1728;1576;1736;1556
1740;1568;1737;1605
1748;1599;1733;1589
1732;1572;1747;1568
1744;1560;1721;1564
1728;1564;1728;1581
1749;1595;1748;1593
1748;1568;1732;1588
1736;1584;1720;1597
1740;1589;1721;1560
1708;1556;1736;1556
1712;1564;1732;1619
1724;1561;1759;1560
1728;1592;1728;1572
1765;1565;1765;1583
1712;1572;1759;1568
1740;1615;1775;1599
1712;1568;1743;1560
1753;1615;1745;1560
1720;1568;1767;1560
1712;1584;1720;1568
1704;1568;1735;1568
1747;1554;1771;1570
1752;1621;1756;1607
1728;1560;1728;1576
1728;1577;1759;1568
1716;1568;1720;1584
1736;1572;1767;1560
1728;1615;1720;1576
1744;1593;1775;1615
1744;1574;1736;1615
1758;1599;1720;1584
1805;1615;1736;1592
1764;1592;1773;1562
1752;1564;1769;1599
1768;1613;1744;1604
1823;1613;1767;1627
1794;1578;1716;1600
1764;1584;1736;1560
1776;1584;1716;1596
1797;1562;1767;1564
1808;1623;1744;1584
1796;1607;1720;1568
1740;1560;1767;1560
1736;1589;1736;1556
1720;1568;1722;1599
1732;1583;1754;1576
1735;1591;1716;1576
1735;1568;1755;1556
1676;1599;1756;1592
1703;1615;1736;1584
1664;1599;1728;1572
1688;1613;1728;1568
1684;1568;1759;1568
1704;1627;1748;1621
1700;1568;1733;1603
1690;1576;1746;1588
1728;1593;1771;1574
1700;1568;1755;1564
1758;1599;1756;1611
1716;1576;1775;1615
1716;1568;1720;1599
1728;1594;1716;1556
1736;1588;1775;1566
1744;1615;1744;1607
1767;1568;1759;1572
1736;1615;1767;1621
1791;1615;1759;1621
1749;1583;1712;1576
1712;1572;1767;1564
1696;1609;1759;1572
1680;1556;1752;1591
1688;1615;1737;1552
1680;1564;1728;1605
1743;1574;1749;1572
1743;1599;1775;1589
1696;1568;1759;1613
1725;1560;1757;1568
1728;1615;1764;1602
1696;1580;1726;1599
1716;1576;1755;1580
1704;1580;1748;1589
1728;1584;1741;1597
1734;1581;1729;1580
1712;1552;1728;1580
1720;1572;1740;1584
1720;1572;1732;1589
1732;1572;1740;1577
1716;1566;1732;1589
1735;1568;1740;1576
1716;1599;1732;1576
1751;1589;1728;1572
1759;1584;1720;1576
1720;1584;1767;1556
1712;1596;1752;1576
1704;1568;1740;1584
1728;1607;1732;1600
1712;1560;1759;1560
1744;1615;1775;1623
1757;1606;1758;1603
1743;1572;1728;1605
1712;1584;1738;1568
1728;1593;1716;1552
1704;1556;1732;1609
1736;1586;1775;1615
1749;1562;1726;1568
1712;1568;1775;1623
1749;1584;1743;1568
1736;1604;1712;1568
1712;1568;1749;1580
1732;1599;1743;1564
1744;1592;1712;1572
1775;1568;1765;1566
1720;1572;1720;1568
1754;1615;1752;1552
1736;1597;1783;1611
1720;1572;1752;1584
1728;1572;1759;1564
1757;1568;1767;1560
1765;1623;1775;1595
1720;1611;1712;1556
1712;1560;1704;1580
1712;1588;1712;1562
1696;1584;1728;1584
1749;1596;1712;1572
1743;1613;1728;1560
1704;1615;1759;1589
1704;1589;1756;1596
1757;1615;1728;1568
1712;1568;1755;1568
1728;1609;1728;1564
1704;1584;1751;1560
1755;1615;1727;1576
1757;1568;1759;1566
1730;1567;1740;1587
1712;1576;1775;1572
1704;1568;1765;1560
1744;1593;1728;1568
1732;1584;1728;1560
1728;1584;1755;1560
1720;1560;1736;1576
1712;1576;1752;1584
1765;1583;1712;1560
1716;1560;1728;1576
1720;1580;1761;1615
1767;1607;1712;1560
1716;1560;1736;1584
1728;1564;1771;1564
1728;1592;1728;1560
1728;1568;1749;1592
1738;1584;1736;1588
1716;1577;1732;1609
1722;1576;1775;1615
1745;1568;1753;1580
1767;1552;1746;1621
1752;1605;1767;1599
1728;1599;1759;1623
1769;1615;1728;1560
1736;1599;1771;1615
1748;1588;1732;1599
1754;1580;1757;1615
1765;1592;1740;1584
1748;1560;1744;1580
1752;1591;1720;1613
1744;1592;1765;1623
1760;1593;1767;1615
1740;1556;1728;1552
1720;1576;1771;1615
1725;1568;1759;1568
1741;1576;1728;1568
1725;1579;1740;1599
1736;1564;1720;1596
1708;1569;1759;1611
1728;1599;1767;1560
1743;1568;1735;1605
1709;1592;1732;1599
1704;1599;1716;1564
1734;1613;1744;1588
1732;1615;1728;1556
1696;1568;1759;1560
1700;1560;1757;1576
1743;1580;1733;1564
1716;1570;1743;1607
1712;1607;1783;1615
1716;1560;1749;1577
1720;1611;1741;1576
1744;1615;1763;1568
1712;1572;1749;1615
1743;1572;1755;1573
1704;1592;1749;1560
1704;1576;1759;1568
1728;1591;1779;1623
1735;1560;1744;1557
1704;1599;1716;1591
1720;1574;1759;1568
1751;1561;1751;1568
1712;1568;1767;1581
1716;1607;1775;1599
1704;1560;1752;1600
1704;1588;1773;1615
1722;1560;1744;1615
1751;1592;1775;1568
1712;1580;1724;1607
1721;1599;1720;1583
1752;1568;1745;1584
1767;1623;1775;1613
1759;1556;1755;1611
1773;1615;1771;1621
1767;1615;1763;1597
1704;1552;1767;1582
1712;1572;1759;1568
1745;1580;1743;1590
1736;1592;1740;1593
1746;1556;1759;1585
1712;1572;1760;1623
1728;1580;1743;1576
1746;1615;1757;1576
1728;1588;1773;1572
1728;1599;1752;1603
1712;1568;1747;1599
1713;1568;1775;1627
1728;1576;1781;1573
1716;1562;1728;1560
1756;1595;1744;1584
1716;1597;1744;1576
1720;1568;1775;1600
1712;1560;1759;1564
1767;1568;1759;1568
1736;1615;1732;1576
1728;1568;1712;1552
1728;1556;1754;1566
1769;1568;1771;1574
1720;1560;1759;1599
1791;1623;1744;1592
1732;1592;1771;1600
1740;1552;1712;1601
1752;1607;1720;1556
1752;1596;1759;1560
1740;1595;1728;1560
1728;1597;1746;1588
1751;1568;1741;1568
1752;1599;1741;1568
1716;1556;1755;1568
1740;1599;1775;1599
1712;1556;1752;1623
1759;1613;1743;1564
1736;1599;1755;1585
1716;1576;1775;1564
1745;1599;1769;1615
1773;1603;1775;1623
1728;1576;1756;1615
1735;1556;1712;1576
1748;1611;1765;1596
1720;1552;1728;1597
1775;1627;1728;1560
1728;1605;1736;1580
1750;1564;1717;1627
1751;1599;1783;1593
1732;1576;1744;1584
1728;1611;1773;1599
1706;1572;1759;1564
1759;1595;1771;1615
1751;1560;1767;1583
1720;1568;1756;1599
1716;1568;1728;1607
1720;1585;1720;1615
1728;1599;1775;1613
1787;1615;1775;1627
1787;1615;1752;1586
1768;1601;1759;1576
1744;1576;1767;1566
1760;1599;1775;1611
1774;1613;1767;1599
1760;1607;1720;1576
1760;1598;1728;1560
1752;1597;1716;1572
1783;1615;1736;1572
1744;1576;1767;1573
1768;1564;1755;1580
1769;1573;1752;1576
1728;1584;1757;1596
1728;1593;1714;1605
1759;1599;1767;1623
1728;1576;1759;1576
1720;1588;1767;1619
1728;1580;1773;1615
1743;1560;1759;1568
1741;1552;1757;1564
1704;1552;1736;1588
1720;1584;1757;1560
1700;1568;1756;1609
1712;1593;1725;1600
1704;1597;1753;1568
1751;1560;1759;1606
1741;1564;1759;1568
1726;1586;1751;1593
1733;1572;1724;1591
1720;1597;1712;1568
1732;1552;1744;1615
1732;1596;1759;1560
1740;1607;1767;1586
1720;1592;1716;1615
1759;1564;1712;1602
1759;1560;1759;1576
1724;1580;1736;1585
1736;1572;1732;1572
1744;1580;1743;1584
1747;1588;1741;1590
1744;1568;1728;1607
1720;1572;1728;1568
1753;1596;1728;1576
1768;1591;1767;1596
1732;1576;1733;1594
1759;1589;1748;1560
1736;1599;1748;1606
1760;1572;1759;1560
1736;1560;1759;1566
1736;1589;1729;1580
1760;1568;1747;1607
1732;1585;1714;1607
1736;1584;1744;1576
1752;1599;1716;1584
1783;1591;1745;1566
1736;1596;1726;1572
1781;1564;1757;1568
1752;1611;1751;1568
1744;1613;1757;1584
1728;1564;1716;1576
1728;1560;1764;1576
1765;1599;1727;1568
1756;1589;1759;1578
1712;1560;1759;1560
1704;1560;1744;1603
1736;1611;1732;1552
1712;1568;1775;1615
1769;1576;1749;1562
1746;1595;1744;1576
1732;1568;1728;1580
1729;1580;1740;1588
1737;1560;1737;1599
1728;1607;1771;1615
1728;1552;1712;1572
1744;1590;1747;1560
1740;1599;1728;1611
1744;1587;1724;1591
1756;1607;1716;1590
1796;1599;1775;1596
1776;1599;1728;1568
1768;1576;1748;1572
1768;1581;1737;1588
1764;1576;1755;1592
1762;1556;1716;1623
1767;1560;1729;1560
1728;1605;1769;1621
1755;1568;1724;1582
1716;1570;1733;1578
1732;1572;1740;1570
1714;1572;1732;1585
1720;1580;1749;1589
1724;1584;1737;1572
1705;1568;1732;1584
1700;1576;1743;1588
1702;1576;1724;1578
1724;1560;1733;1560
1700;1584;1767;1584
1732;1592;1720;1607
1735;1560;1744;1599
1712;1564;1753;1581
1720;1584;1771;1621
1766;1615;1728;1568
1712;1564;1739;1552
1736;1595;1740;1609
1756;1598;1787;1623
1744;1560;1744;1609
1759;1560;1728;1604
1734;1587;1747;1584
1720;1599;1716;1609
1783;1615;1720;1599
1759;1587;1732;1573
1781;1591;1716;1594
1781;1613;1775;1605
1744;1604;1720;1593
1744;1607;1751;1560
1736;1572;1740;1623
1781;1576;1728;1599
1740;1552;1720;1612
1771;1565;1751;1615
1744;1585;1722;1588
1768;1607;1749;1615
1736;1576;1767;1600
1712;1560;1767;1597
1737;1592;1737;1576
1755;1569;1755;1623
1736;1584;1767;1615
1759;1607;1760;1568
1740;1552;1756;1564
1751;1552;1753;1556
1712;1599;1720;1615
1720;1593;1712;1568
1775;1570;1728;1605
1768;1609;1761;1592
1748;1560;1720;1607
1787;1599;1775;1607
1791;1613;1732;1560
1752;1568;1773;1597
1759;1560;1720;1596
1791;1568;1716;1609
1799;1599;1712;1592
1768;1584;1725;1568
1783;1560;1712;1556
1748;1568;1771;1572
1757;1564;1775;1631
1775;1595;1751;1567
1728;1560;1757;1615
1728;1556;1728;1584
1760;1615;1732;1564
1765;1615;1773;1615
1765;1597;1728;1576
1747;1560;1724;1596
1738;1572;1759;1583
1730;1564;1749;1572
1759;1583;1734;1584
1767;1583;1742;1570
1708;1560;1712;1576
1728;1599;1759;1568
1708;1552;1712;1568
1712;1599;1755;1560
1704;1599;1751;1560
1747;1584;1724;1564
1753;1556;1716;1600
1775;1613;1769;1615
1753;1592;1751;1560
1764;1570;1757;1581
1775;1583;1716;1608
1779;1560;1732;1556
1728;1580;1736;1556
1744;1589;1727;1560
1744;1576;1759;1585
1728;1552;1712;1556
1736;1572;1716;1615
1775;1584;1767;1599
1775;1597;1717;1572
1767;1613;1775;1615
1759;1599;1752;1597
1708;1584;1720;1597
1704;1595;1712;1584
1743;1560;1754;1576
1712;1568;1728;1587
1740;1580;1745;1589
1745;1574;1752;1588
1744;1578;1733;1592
1747;1576;1748;1591
1756;1572;1721;1576
1754;1560;1712;1596
1775;1581;1769;1578
1789;1607;1720;1599
1744;1553;1720;1584
1785;1599;1728;1599
1736;1584;1714;1584
1803;1591;1728;1599
1744;1560;1775;1615
1791;1591;1708;1568
1761;1590;1722;1589
1732;1552;1716;1568
1775;1605;1727;1564
1767;1599;1712;1603
1773;1576;1733;1599
1732;1577;1740;1627
1787;1597;1753;1573
1757;1580;1708;1576
1764;1599;1729;1560
1783;1582;1771;1599
1751;1568;1765;1584
1791;1615;1708;1605
1781;1568;1743;1564
1807;1599;1733;1576
1821;1568;1736;1611
1839;1599;1714;1576
1820;1584;1740;1552
1792;1596;1720;1607
1800;1568;1783;1576
1840;1572;1759;1568
1808;1584;1759;1560
1808;1556;1701;1568
1855;1556;1712;1568
1871;1570;1696;1556
1915;1589;1712;1560
1904;1560;1771;1569
1892;1576;1754;1568
1931;1552;1736;1614
1880;1589;1724;1568
1855;1572;1759;1571
1824;1560;1745;1615
1855;1595;1720;1607
1796;1568;1771;1599
1811;1556;1712;1576
1784;1596;1712;1603
1776;1592;1759;1604
1842;1560;1724;1591
1860;1570;1741;1599
1921;1576;1712;1576
1974;1585;1736;1599
1920;1576;1759;1611
1935;1595;1724;1578
1871;1556;1712;1562
1784;1552;1712;1572
1793;1576;1759;1562
1780;1552;1727;1611
1856;1568;1759;1615
1927;1584;1759;1615
1928;1560;1749;1556
1989;1572;1729;1556
2031;1564;1741;1560
2000;1556;1674;1568
2061;1560;1704;1556
2050;1556;1724;1556
2064;1560;1746;1595
2079;1560;1716;1568
2069;1607;1743;1556
2078;1552;1732;1564
2162;1544;1721;1607
2240;1596;1775;1615
2223;1568;1728;1611
2175;1565;1764;1613
2092;1603;1733;1560
1968;1552;1712;1584
1960;1580;1775;1574
1981;1560;1712;1607
1983;1568;1759;1560
2000;1576;1720;1584
2125;1599;1741;1564
2100;1556;1735;1564
2112;1556;1728;1568
2125;1599;1775;1623
2033;1596;1771;1607
1860;1560;1759;1560
1791;1561;1720;1599
1688;1560;1740;1590
1668;1568;1716;1581
1688;1587;1758;1583
1696;1599;1714;1572
1711;1599;1727;1609
1708;1560;1712;1598
1709;1566;1751;1569
1600;1560;1746;1599
1615;1564;1712;1607
1535;1560;1759;1613
1527;1607;1721;1584
1609;1552;1775;1615
1759;1589;1746;1577
1920;1568;1745;1588
2117;1607;1728;1564
2168;1560;1733;1596
2240;1586;1775;1579
2229;1562;1721;1560
2128;1556;1712;1584
2175;1560;1722;1587
2157;1611;1720;1560
2100;1572;1759;1562
2125;1565;1755;1611
2111;1556;1720;1560
2000;1589;1745;1568
1933;1599;1769;1560
1796;1584;1743;1562
1728;1576;1742;1560
1785;1597;1755;1560
1773;1570;1708;1556
1704;1592;1759;1556
1780;1599;1732;1560
1884;1556;1717;1568
2007;1599;1712;1594
2012;1560;1721;1599
2189;1611;1775;1578
2239;1552;1726;1574
2160;1568;1771;1607
2231;1599;1720;1607
2176;1597;1714;1552
2212;1556;1712;1556
2194;1548;1735;1556
2080;1560;1720;1568
1976;1552;1717;1552
1932;1552;1737;1589
1958;1568;1740;1580
1888;1584;1755;1581
1911;1591;1727;1568
1796;1599;1737;1570
1672;1568;1708;1568
1719;1576;1704;1568
1823;1557;1716;1576
1855;1580;1728;1615
1863;1609;1716;1568
2015;1597;1716;1611
2147;1568;1728;1576
2260;1584;1744;1601
2315;1576;1773;1579
2239;1564;1737;1588
2088;1568;1740;1588
1996;1552;1712;1572
2013;1562;1745;1595
2110;1556;1712;1576
2271;1552;1716;1572
2299;1568;1728;1576
2068;1599;1716;1584
1851;1576;1744;1591
1610;1580;1767;1586
1517;1576;1758;1581
1392;1576;1759;1556
1420;1599;1757;1572
1272;1552;1716;1592
1087;1568;1732;1611
895;1596;1714;1572
872;1576;1736;1600
951;1580;1732;1585
848;1552;1714;1570
752;1552;1729;1599
765;1588;1767;1599
823;1575;1698;1568
863;1568;1712;1580
975;1597;1732;1544
1087;1576;1757;1586
1200;1560;1750;1584
1299;1599;1712;1576
1311;1589;1708;1602
1240;1580;1734;1584
1208;1580;1734;1577
1192;1584;1736;1584
1194;1569;1736;1572
1288;1580;1740;1580
1404;1576;1732;1581
1400;1593;1747;1572
1348;1585;1747;1584
1328;1576;1728;1572
1500;1564;1720;1572
1512;1584;1759;1575
1567;1597;1743;1572
1583;1589;1728;1613
1583;1595;1712;1560
1552;1575;1753;1584
1544;1599;1712;1592
1631;1576;1757;1556
1739;1557;1716;1568
1837;1562;1757;1585
1844;1595;1708;1592
1818;1560;1716;1598
1887;1607;1737;1560
1841;1599;1732;1568
1861;1560;1757;1588
1909;1560;1712;1576
1820;1593;1771;1613
1693;1560;1712;1588
1679;1609;1721;1568
1707;1552;1728;1615
1760;1576;1759;1588
1935;1607;1773;1595
1983;1580;1773;1556
1992;1588;1759;1570
2000;1568;1775;1583
1839;1564;1728;1615
1703;1560;1708;1560
1568;1576;1708;1576
1591;1560;1704;1560
1612;1560;1708;1560
1680;1607;1718;1560
1696;1560;1750;1615
1631;1552;1716;1556
1400;1552;1740;1615
1215;1591;1712;1592
1079;1568;1744;1615
1143;1599;1716;1597
1188;1607;1728;1607
1311;1599;1712;1568
1391;1599;1744;1572
1444;1595;1708;1548
1503;1581;1728;1597
1439;1556;1728;1601
1343;1599;1720;1607
1192;1597;1716;1595
1120;1568;1704;1568
1135;1568;1759;1591
1151;1589;1756;1560
1208;1552;1709;1556
1280;1556;1744;1568
1384;1584;1725;1568
1500;1613;1738;1560
1548;1568;1751;1569
1631;1570;1740;1615
1727;1615;1755;1569
1749;1560;1716;1552
1876;1576;1771;1607
1959;1588;1764;1564
1951;1552;1728;1560
1864;1556;1704;1568
1869;1568;1712;1560
1716;1556;1704;1560
1644;1552;1713;1552
1560;1568;1708;1560
1523;1556;1755;1560
1456;1588;1765;1615
1463;1564;1708;1568
1481;1591;1728;1607
1567;1613;1716;1560
1592;1596;1728;1606
1647;1589;1712;1560
1604;1576;1704;1568
1640;1556;1720;1605
1616;1576;1720;1615
1658;1560;1712;1588
1679;1576;1728;1611
1677;1573;1708;1576
1679;1599;1720;1591
1624;1605;1716;1597
1600;1560;1720;1607
1719;1593;1755;1566
1648;1560;1716;1599
1607;1615;1771;1611
1574;1552;1744;1607
1591;1577;1716;1584
1615;1560;1759;1568
1631;1552;1725;1560
1727;1573;1749;1574
1707;1560;1728;1568
1657;1576;1739;1599
1631;1584;1740;1572
1657;1584;1743;1572
1727;1552;1726;1591
1728;1560;1712;1560
1761;1599;1712;1580
1803;1560;1712;1593
1805;1556;1720;1576
1813;1611;1708;1605
1773;1556;1704;1560
1781;1552;1728;1568
1812;1552;1747;1576
1867;1615;1713;1560
1780;1607;1722;1576
1749;1552;1756;1556
1696;1577;1716;1584
1599;1556;1736;1615
1467;1557;1743;1568
1327;1590;1736;1564
1240;1577;1767;1591
1386;1584;1759;1577
1484;1560;1708;1552
1582;1564;1744;1613
1685;1568;1732;1564
1701;1576;1747;1568
1711;1568;1720;1584
1727;1597;1716;1582
1704;1588;1759;1615
1755;1560;1759;1568
1720;1560;1708;1564
1729;1552;1728;1599
1728;1584;1767;1572
1716;1560;1712;1560
1728;1576;1759;1615
1759;1568;1728;1609
1791;1597;1728;1599
1736;1607;1747;1572
1755;1560;1716;1561
1708;1560;1720;1588
1743;1601;1759;1599
1656;1552;1728;1605
1695;1599;1767;1611
1636;1560;1728;1599
1655;1556;1712;1584
1679;1560;1720;1596
1743;1568;1744;1597
1749;1560;1728;1611
1739;1568;1736;1593
1695;1560;1757;1564
1639;1607;1728;1605
1570;1568;1704;1568
1565;1560;1722;1564
1545;1560;1753;1615
1535;1584;1728;1560
1512;1560;1712;1554
1568;1588;1759;1570
1650;1556;1716;1588
1727;1603;1734;1560
1664;1560;1728;1611
1727;1607;1729;1556
1708;1560;1732;1615
1821;1584;1728;1568
1804;1560;1728;1602
1846;1568;1759;1607
1833;1560;1744;1583
1808;1609;1712;1593
1792;1568;1732;1607
1803;1560;1716;1568
1791;1560;1755;1560
1773;1586;1755;1597
1728;1552;1712;1572
1789;1599;1747;1564
1744;1568;1712;1560
1736;1607;1712;1576
1722;1597;1720;1584
1705;1568;1749;1574
1696;1560;1740;1588
1712;1560;1728;1604
1751;1568;1736;1607
1759;1562;1720;1576
1736;1568;1712;1556
1732;1560;1708;1560
1789;1573;1728;1578
1791;1593;1732;1588
1768;1592;1736;1576
1744;1586;1741;1580
1791;1586;1736;1593
1742;1552;1708;1560
1728;1560;1745;1564
1775;1565;1728;1580
1823;1568;1720;1604
1756;1588;1759;1595
1728;1572;1736;1609
1753;1556;1728;1556
1712;1572;1736;1552
1700;1560;1720;1589
1757;1564;1765;1613
1775;1568;1704;1556
1746;1572;1748;1577
1728;1556;1712;1556
1728;1568;1720;1588
1775;1613;1720;1613
1736;1599;1720;1594
1787;1599;1728;1609
1716;1568;1708;1552
1704;1568;1712;1568
1696;1560;1716;1561
1692;1564;1712;1576
1755;1572;1751;1568
1716;1580;1720;1592
1693;1568;1748;1607
1707;1610;1767;1611
1660;1568;1736;1605
1695;1592;1720;1568
1664;1552;1725;1560
1648;1560;1732;1608
1680;1568;1769;1599
1695;1560;1704;1552
1676;1568;1712;1584
1727;1609;1720;1560
1680;1568;1720;1580
1727;1615;1708;1556
1688;1572;1720;1603
1690;1560;1748;1584
1668;1568;1712;1556
1656;1609;1755;1600
1707;1564;1752;1566
1700;1613;1712;1564
1684;1568;1712;1568
1714;1584;1732;1584
1735;1572;1746;1580
1680;1580;1749;1572
1727;1576;1751;1576
1684;1572;1728;1600
1739;1560;1744;1574
1688;1560;1720;1560
1680;1568;1752;1572
1684;1560;1712;1560
1680;1568;1728;1599
1695;1560;1712;1584
1725;1561;1749;1588
1698;1572;1724;1602
1680;1584;1720;1599
1709;1583;1712;1568
1684;1560;1720;1556
1676;1564;1755;1568
1700;1601;1716;1560
1704;1556;1716;1564
1724;1560;1728;1611
1747;1556;1716;1552
1720;1560;1736;1615
1759;1611;1724;1560
1720;1556;1759;1560
1696;1568;1708;1568
1720;1552;1706;1564
1737;1588;1765;1587
1708;1568;1728;1611
1749;1576;1712;1588
1779;1568;1757;1560
1736;1611;1708;1560
1722;1576;1753;1576
1745;1568;1724;1584
1748;1578;1745;1596
1728;1591;1716;1568
1720;1560;1712;1572
1775;1599;1759;1607
1720;1560;1728;1599
1749;1564;1736;1611
1712;1568;1716;1568
1783;1611;1743;1599
1758;1560;1755;1576
1752;1599;1716;1608
1814;1568;1716;1599
1808;1576;1740;1568
1792;1560;1712;1576
1823;1576;1740;1584
1776;1576;1712;1588
1823;1580;1713;1591
1754;1576;1732;1599
1732;1564;1732;1589
1716;1568;1708;1568
1739;1576;1708;1599
1656;1576;1728;1585
1691;1552;1748;1613
1643;1552;1732;1615
1663;1552;1728;1615
1636;1568;1748;1585
1632;1560;1759;1568
1640;1568;1712;1592
1695;1560;1712;1576
1704;1572;1736;1611
1719;1556;1732;1615
1695;1568;1712;1560
1696;1594;1751;1615
1704;1560;1749;1599
1664;1580;1759;1615
1711;1568;1748;1580
1704;1599;1712;1568
1692;1568;1720;1576
1751;1599;1759;1592
1743;1572;1708;1560
1704;1552;1704;1572
1728;1584;1749;1573
1692;1584;1743;1599
1696;1560;1744;1599
1716;1576;1742;1564
1736;1584;1716;1568
1712;1591;1759;1611
1743;1565;1720;1599
1720;1576;1732;1564
1765;1564;1724;1597
1767;1568;1720;1597
1720;1573;1740;1561
1716;1576;1704;1568
1696;1568;1740;1599
1736;1568;1724;1583
1728;1568;1712;1584
1720;1572;1737;1576
1736;1615;1732;1556
1775;1599;1736;1573
1772;1568;1736;1576
1744;1584;1738;1588
1764;1583;1742;1580
1760;1578;1740;1584
1748;1570;1732;1572
1753;1578;1712;1596
1765;1585;1742;1580
1724;1576;1712;1584
1748;1592;1712;1576
1755;1568;1767;1611
1696;1584;1732;1584
1743;1564;1751;1560
1700;1584;1728;1576
1727;1548;1749;1576
1724;1599;1716;1605
1696;1600;1744;1592
1728;1568;1728;1560
1688;1568;1716;1580
1736;1572;1704;1564
1733;1615;1720;1598
1757;1568;1747;1552
1704;1568;1737;1572
1728;1560;1712;1560
1696;1556;1720;1601
1759;1560;1736;1568
1781;1599;1759;1599
1740;1568;1759;1600
1772;1592;1749;1613
1789;1615;1704;1560
1728;1584;1750;1596
1776;1588;1755;1577
1752;1592;1752;1580
1792;1568;1712;1560
1764;1568;1704;1568
1768;1560;1755;1585
1778;1572;1765;1565
1760;1584;1752;1607
1772;1572;1746;1611
1760;1584;1728;1605
1764;1568;1728;1611
1770;1576;1728;1584
1776;1560;1716;1584
1792;1592;1728;1568
1807;1615;1728;1568
1760;1560;1740;1568
1835;1613;1728;1576
1792;1580;1736;1606
1792;1588;1712;1572
1792;1596;1712;1560
1760;1560;1728;1576
1760;1576;1712;1568
1741;1568;1712;1596
1775;1615;1746;1595
1728;1576;1712;1568
1712;1576;1728;1576
1740;1592;1712;1568
1688;1576;1767;1564
1692;1605;1704;1599
1680;1584;1736;1607
1717;1566;1712;1560
1672;1568;1748;1607
1672;1576;1736;1592
1716;1584;1740;1584
1716;1615;1759;1568
1722;1615;1728;1601
1715;1569;1755;1561
1727;1599;1728;1599
1684;1552;1708;1599
1716;1568;1737;1597
1752;1589;1749;1599
1760;1572;1732;1580
1756;1572;1728;1591
1777;1585;1743;1584
1760;1585;1744;1590
1776;1574;1748;1594
1752;1593;1752;1572
1791;1629;1728;1568
1785;1615;1739;1564
1768;1588;1732;1588
1769;1568;1757;1568
1751;1560;1724;1595
1721;1584;1720;1607
1677;1595;1767;1595
1695;1621;1716;1560
1664;1576;1732;1584
1664;1572;1716;1572
1688;1568;1759;1561
1700;1568;1754;1615
1759;1581;1712;1607
1716;1584;1759;1599
1716;1580;1749;1597
1704;1556;1736;1584
1700;1572;1744;1615
1706;1552;1728;1576
1712;1580;1767;1589
1700;1568;1732;1592
1724;1605;1728;1568
1743;1615;1736;1560
1712;1580;1749;1599
1714;1615;1712;1560
1712;1577;1748;1613
1740;1568;1759;1564
1759;1613;1739;1560
1704;1552;1720;1584
1720;1584;1759;1560
1716;1592;1736;1584
1728;1576;1737;1576
1735;1585;1716;1583
1722;1576;1732;1592
1713;1584;1736;1584
1712;1576;1740;1605
1730;1592;1734;1585
1716;1573;1740;1576
1698;1607;1775;1602
1728;1593;1756;1600
1759;1615;1736;1584
1712;1576;1751;1564
1712;1580;1712;1556
1726;1623;1767;1560
1697;1599;1716;1584
1688;1568;1744;1605
1704;1572;1720;1584
1720;1596;1740;1609
1767;1615;1728;1556
1722;1588;1759;1556
1712;1564;1728;1564
1720;1568;1743;1576
1737;1568;1755;1568
1747;1572;1728;1592
1712;1580;1759;1568
1753;1572;1736;1584
1708;1588;1724;1602
1743;1581;1744;1585
1728;1581;1745;1596
1728;1577;1712;1592
1767;1597;1712;1594
1763;1615;1740;1607
1712;1560;1759;1615
1744;1568;1759;1562
1720;1605;1728;1568
1728;1576;1767;1560
1716;1592;1716;1556
1728;1584;1751;1560
1708;1560;1732;1584
1728;1568;1728;1613
1724;1576;1752;1615
1759;1595;1755;1609
1720;1572;1728;1600
1712;1576;1767;1568
1720;1560;1738;1623
1726;1597;1741;1572
1757;1553;1753;1568
1727;1568;1724;1596
1728;1599;1748;1621
1772;1592;1716;1607
1736;1585;1720;1576
1736;1580;1749;1572
1781;1615;1767;1609
1744;1580;1775;1592
1736;1552;1728;1584
1732;1588;1720;1568
1721;1615;1716;1568
1728;1572;1736;1560
1720;1584;1751;1572
1753;1596;1698;1568
1720;1615;1732;1584
1712;1568;1767;1566
1704;1568;1716;1580
1712;1564;1759;1562
1704;1556;1755;1584
1734;1581;1750;1564
1741;1572;1724;1600
1755;1591;1753;1560
1712;1591;1712;1592
1720;1576;1724;1588
1720;1568;1732;1568
1720;1568;1767;1556
1704;1586;1728;1584
1720;1580;1765;1583
1736;1611;1716;1576
1720;1576;1765;1615
1718;1560;1744;1608
1716;1584;1744;1572
1736;1588;1712;1568
1728;1592;1765;1607
1724;1594;1764;1615
1759;1576;1728;1560
1759;1576;1734;1564
1736;1585;1767;1615
1775;1568;1755;1568
1739;1584;1716;1600
1720;1599;1716;1568
1720;1552;1714;1564
1732;1588;1704;1599
1783;1568;1744;1584
1740;1599;1728;1599
1744;1556;1770;1607
1742;1560;1759;1599
1728;1576;1745;1594
1724;1599;1727;1570
1720;1585;1737;1594
1728;1615;1762;1576
1720;1572;1724;1604
1732;1568;1727;1568
1752;1615;1744;1593
1728;1576;1716;1556
1716;1560;1712;1576
1720;1594;1728;1607
1767;1576;1739;1568
1728;1609;1720;1556
1712;1576;1753;1560
1744;1607;1736;1560
1724;1629;1716;1556
1716;1615;1769;1600
1720;1584;1736;1607
1752;1576;1728;1592
1744;1572;1749;1568
1744;1605;1736;1568
1728;1576;1712;1607
1736;1591;1720;1607
1728;1599;1712;1586
1759;1576;1767;1609
1728;1584;1767;1564
1744;1615;1728;1584
1728;1588;1767;1568
1716;1564;1712;1560
1728;1568;1751;1576
1759;1568;1757;1593
1729;1597;1736;1570
1757;1582;1728;1568
1742;1580;1736;1580
1730;1576;1722;1605
1736;1593;1728;1593
1755;1564;1771;1575
1728;1597;1740;1560
1728;1613;1722;1584
1767;1582;1759;1564
1752;1588;1728;1609
1756;1568;1771;1568
1736;1609;1720;1560
1728;1592;1744;1580
1772;1603;1720;1584
1728;1588;1720;1598
1720;1589;1773;1599
1722;1560;1751;1615
1724;1564;1728;1607
1761;1599;1728;1560
1708;1564;1771;1568
1736;1615;1759;1560
1712;1596;1720;1580
1752;1611;1712;1568
1712;1580;1759;1615
1734;1560;1759;1584
1722;1584;1767;1599
1736;1595;1752;1588
1736;1576;1732;1586
1754;1576;1738;1586
1744;1564;1720;1585
1759;1576;1730;1580
1748;1578;1737;1589
1748;1580;1740;1576
1744;1577;1728;1584
1748;1572;1728;1584
1732;1576;1730;1585
1756;1576;1728;1589
1740;1576;1720;1599
1732;1599;1759;1556
1736;1615;1736;1588
1744;1586;1721;1592
1757;1560;1763;1570
1752;1560;1769;1564
1775;1560;1753;1566
1736;1603;1775;1615
1730;1576;1752;1568
1748;1593;1775;1572
1736;1584;1728;1572
1728;1560;1759;1560
1736;1592;1752;1588
1728;1599;1720;1582
1753;1566;1757;1572
1752;1611;1775;1569
1720;1593;1728;1576
1712;1580;1732;1592
1732;1556;1773;1615
1733;1552;1765;1589
1716;1586;1757;1623
1777;1587;1737;1560
1728;1607;1755;1564
1767;1615;1720;1552
1728;1592;1720;1560
1720;1599;1767;1568
1748;1623;1720;1560
1712;1592;1725;1568
1736;1615;1736;1568
1728;1556;1767;1560
1769;1581;1759;1602
1753;1600;1767;1577
1720;1584;1783;1631
1780;1605;1759;1564
1736;1623;1773;1623
1775;1607;1740;1560
1720;1593;1775;1589
1712;1605;1720;1611
1740;1564;1741;1576
1767;1611;1757;1613
1748;1560;1759;1615
1757;1599;1783;1576
1716;1560;1759;1623
1736;1572;1736;1576
1756;1623;1771;1615
1783;1599;1728;1564
1728;1580;1739;1584
1752;1589;1752;1580
1752;1613;1744;1589
1752;1572;1767;1564
1732;1560;1728;1588
1781;1611;1775;1615
1789;1615;1753;1615
1791;1599;1740;1611
1768;1560;1749;1615
1791;1581;1771;1615
1783;1623;1712;1599
1755;1556;1740;1619
1728;1568;1724;1599
1728;1615;1739;1564
1720;1615;1756;1615
1716;1568;1767;1568
1759;1568;1740;1611
1728;1589;1720;1584
1728;1592;1728;1576
1728;1576;1775;1615
1723;1595;1716;1560
1728;1572;1746;1576
1712;1607;1759;1599
1720;1556;1725;1560
1716;1597;1744;1572
1732;1564;1741;1597
1740;1578;1740;1568
1736;1566;1751;1592
1752;1591;1744;1592
1764;1560;1736;1577
1776;1595;1728;1615
1803;1611;1739;1568
1752;1580;1771;1571
1768;1599;1721;1572
1776;1613;1732;1592
1776;1584;1724;1576
1760;1560;1757;1615
1807;1613;1728;1576
1776;1615;1728;1560
1752;1568;1759;1564
1760;1586;1773;1599
1803;1599;1724;1576
1760;1615;1775;1592
1720;1568;1769;1599
1712;1560;1763;1615
1743;1615;1775;1615
1739;1548;1744;1615
1724;1584;1775;1589
1684;1578;1775;1589
1672;1590;1712;1611
1688;1590;1732;1568
1733;1613;1712;1601
1735;1556;1720;1588
1696;1572;1767;1601
1735;1583;1743;1560
1704;1584;1725;1578
1704;1568;1736;1584
1704;1576;1773;1629
1720;1576;1716;1564
1716;1591;1732;1576
1728;1576;1732;1576
1732;1568;1732;1597
1756;1580;1724;1609
1779;1623;1720;1584
1764;1611;1775;1615
1744;1588;1743;1568
1770;1615;1724;1568
1767;1568;1749;1568
1771;1572;1720;1576
1738;1568;1775;1623
1751;1623;1752;1592
1767;1591;1713;1605
1724;1576;1747;1584
1720;1593;1738;1572
1765;1568;1767;1595
1728;1568;1759;1564
1740;1556;1771;1623
1789;1599;1771;1615
1783;1564;1712;1560
1792;1599;1759;1560
1744;1598;1728;1584
1780;1588;1720;1560
1736;1592;1775;1599
1757;1556;1720;1586
1791;1615;1720;1613
1803;1615;1753;1576
1792;1580;1728;1580
1812;1589;1775;1602
1808;1615;1775;1663
1855;1599;1771;1572
1796;1572;1775;1631
1833;1611;1759;1599
1784;1568;1767;1615
1847;1611;1739;1568
1832;1615;1720;1580
1861;1584;1728;1580
1848;1611;1763;1613
1851;1560;1773;1576
1844;1599;1769;1609
1848;1572;1771;1568
1868;1599;1767;1589
1832;1584;1736;1592
1808;1584;1773;1631
1831;1629;1728;1612
1776;1613;1773;1591
1740;1552;1712;1584
1771;1595;1783;1586
1732;1568;1759;1572
1755;1568;1730;1596
1775;1599;1724;1568
1748;1605;1771;1583
1728;1576;1734;1568
1754;1583;1726;1529
1712;1605;1716;1600
1737;1569;1749;1593
1720;1544;1759;1568
1712;1595;1759;1611
1743;1655;1728;1568
1696;1560;1765;1588
1728;1615;1783;1621
1767;1597;1775;1575
1736;1591;1736;1619
1796;1588;1759;1548
1768;1576;1722;1615
1752;1599;1716;1568
1779;1599;1724;1588
1796;1599;1771;1623
1895;1591;1775;1615
1943;1611;1775;1623
1968;1560;1744;1599
1995;1556;1740;1613
2029;1599;1716;1611
1984;1599;1720;1605
2031;1607;1759;1589
1964;1556;1720;1576
2021;1597;1725;1576
2008;1595;1767;1599
2045;1569;1716;1592
2111;1615;1736;1560
2104;1590;1757;1584
2148;1568;1761;1615
2261;1580;1775;1595
2218;1556;1759;1560
2250;1552;1716;1607
2279;1615;1745;1588
2228;1568;1767;1615
2199;1556;1775;1623
2164;1590;1747;1574
2116;1564;1759;1607
2173;1564;1748;1560
2168;1597;1716;1572
2164;1599;1716;1572
2089;1568;1728;1577
1980;1572;1748;1593
1864;1580;1736;1582
1760;1572;1728;1588
1699;1576;1733;1580
1684;1580;1744;1592
1736;1585;1746;1596
1792;1560;1759;1576
1875;1581;1775;1593
2005;1593;1720;1593
2080;1568;1712;1580
2335;1599;1751;1611
2495;1583;1773;1615
2525;1568;1754;1615
2477;1552;1714;1572
2457;1583;1736;1585
2488;1564;1724;1576
2441;1556;1734;1603
2336;1580;1720;1611
2336;1576;1771;1593
2424;1568;1749;1560
2364;1580;1775;1599
2312;1552;1729;1611
2301;1577;1726;1556
2207;1599;1775;1615
2265;1556;1716;1619
2312;1568;1775;1589
2239;1599;1712;1594
2183;1589;1783;1580
2024;1593;1728;1593
1956;1581;1767;1623
1944;1580;1733;1568
1959;1560;1732;1588
2008;1568;1749;1568
2079;1552;1767;1580
1960;1584;1714;1586
1842;1592;1744;1591
1801;1584;1720;1576
1696;1568;1728;1572
1609;1584;1759;1560
1503;1572;1736;1576
1437;1591;1749;1577
1444;1556;1736;1597
1472;1599;1748;1564
1453;1560;1752;1597
1432;1556;1727;1560
1460;1599;1712;1568
1511;1597;1724;1568
1456;1598;1712;1568
1472;1599;1728;1615
1544;1568;1728;1613
1664;1591;1759;1568
1733;1581;1733;1564
1755;1577;1728;1615
1853;1554;1728;1592
1944;1592;1728;1564
2012;1573;1737;1576
2007;1576;1736;1580
1945;1572;1729;1580
1872;1568;1721;1572
1916;1568;1732;1577
1880;1580;1740;1584
1804;1588;1749;1588
1605;1560;1735;1599
1352;1562;1741;1592
1138;1568;1751;1580
997;1560;1771;1599
939;1607;1736;1589
880;1574;1728;1564
886;1607;1716;1600
752;1596;1724;1595
600;1572;1727;1568
565;1599;1791;1623
609;1590;1713;1607
756;1582;1724;1565
976;1599;1728;1615
1183;1569;1759;1589
1307;1560;1714;1560
1336;1576;1751;1569
1320;1565;1743;1570
1360;1552;1692;1556
1432;1568;1728;1592
1412;1580;1757;1560
1344;1607;1736;1556
1344;1552;1708;1580
1503;1569;1738;1607
1524;1552;1728;1588
1591;1589;1743;1560
1569;1607;1724;1568
1599;1599;1728;1599
1544;1552;1765;1599
1527;1592;1767;1593
1464;1560;1728;1588
1535;1599;1721;1607
1556;1552;1728;1584
1695;1560;1716;1605
1871;1574;1757;1564
2040;1599;1759;1615
2204;1556;1704;1560
2240;1584;1759;1568
2208;1584;1708;1597
2204;1552;1712;1597
2197;1552;1775;1613
2220;1560;1716;1560
2116;1607;1712;1586
2031;1568;1728;1615
2008;1552;1747;1562
1994;1599;1759;1621
1908;1585;1720;1599
1744;1560;1708;1584
1744;1594;1725;1572
1711;1572;1744;1567
1616;1587;1712;1603
1727;1591;1716;1578
1949;1591;1759;1615
2103;1560;1708;1580
2125;1580;1724;1627
2132;1576;1728;1576
2152;1580;1704;1568
1952;1583;1728;1596
1589;1589;1744;1573
1344;1552;1741;1572
1468;1599;1775;1611
1584;1560;1712;1584
1488;1605;1732;1568
1399;1593;1738;1615
1268;1552;1771;1568
1092;1611;1767;1615
1043;1587;1759;1585
1183;1597;1771;1599
1368;1556;1781;1615
1559;1572;1704;1560
1600;1611;1747;1560
1576;1584;1713;1580
1551;1577;1759;1596
1375;1552;1712;1584
1087;1599;1741;1556
940;1584;1726;1599
1024;1573;1728;1594
1277;1599;1736;1615
1559;1585;1720;1560
1671;1599;1728;1595
1720;1599;1717;1556
1736;1588;1759;1564
1756;1585;1712;1578
1759;1580;1744;1615
1692;1552;1712;1568
1727;1564;1736;1597
1707;1580;1720;1596
