NOVA ROTINA -- 2018-06-02 14:33:36

0; 0 ; 0 ; 0 ; 0 ; 0; 0.0; 0.0; 0.0; 0.0
0.1; 0 ; 0 ; 0 ; 0 ; 0; 0.011279296875; 0.0; 0.0; 0.0
0.2; 0 ; 0 ; 0 ; 0 ; 0; 0.01611328125; 0.011279296875; 0.008056640625; 0.0
0.3; 0 ; 0 ; 0 ; 0 ; 0; 0.030615234375; 0.03544921875; 0.030615234375; 0.0378662109375
0.4; 0 ; 0 ; 0 ; 0 ; 0; 0.095068359375; 0.107958984375; 0.105541992187; 0.078955078125
0.5; 0 ; 0 ; 0 ; 0 ; 0; 0.153076171875; 0.159521484375; 0.1740234375; 0.095068359375
0.6; 0 ; 0 ; 0 ; 0 ; 0; 0.207861328125; 0.21591796875; 0.233642578125; 0.131323242187
0.7; 0 ; 0 ; 0 ; 0 ; 0; 0.178857421875; 0.204638671875; 0.223974609375; 0.091845703125
0.8; 0 ; 0 ; 0 ; 0 ; 0; 0.153076171875; 0.173217773438; 0.194970703125; 0.062841796875
0.9; 0 ; 0 ; 0 ; 0 ; 0; 0.09990234375; 0.120849609375; 0.117626953125; 0.027392578125
1.0; 0 ; 0 ; 0 ; 0 ; 0; 0.0; 0.0; 0.0; 0.0
1.1; 0 ; 0 ; 0 ; 0 ; 0; 0.0; 0.0; 0.0; 0.0
1.2; 0 ; 0 ; 0 ; 0 ; 0; 0.0; 0.0; 0.0; 0.0
1.3; 0 ; 0 ; 0 ; 0 ; 0; 0.0; 0.0; 0.0; 0.0
1.4; 0 ; 0 ; 0 ; 0 ; 0; 0.0; 0.0; 0.0; 0.0
1.5; 0 ; 0 ; 0 ; 0 ; 0; 0.001611328125; 0.0; 0.0; 0.0
1.6; 0 ; 0 ; 0 ; 0 ; 0; 0.0; 0.0; 0.0; 0.0024169921875
1.7; 0 ; 0 ; 0 ; 0 ; 0; 0.0; 0.0; 0.0; 0.0
1.8; 0 ; 0 ; 0 ; 0 ; 0; 0.011279296875; 0.0; 0.0; 0.0
1.9; 0 ; 0 ; 0 ; 0 ; 0; 0.00966796875; 0.00322265625; 0.0; 0.0
2.0; 0 ; 0 ; 0 ; 0 ; 0; 0.030615234375; 0.0249755859375; 0.020947265625; 0.0249755859375
2.1; 0 ; 0 ; 0 ; 0 ; 0; 0.08056640625; 0.0894287109375; 0.105541992187; 0.0765380859375
2.2; 0 ; 0 ; 0 ; 0 ; 0; 0.140185546875; 0.140991210938; 0.150659179688; 0.085400390625
2.3; 0 ; 0 ; 0 ; 0 ; 0; 0.165966796875; 0.185302734375; 0.214306640625; 0.1224609375
2.4; 0 ; 0 ; 0 ; 0 ; 0; 0.198193359375; 0.22880859375; 0.23203125; 0.0926513671875
2.5; 0 ; 0 ; 0 ; 0 ; 0; 0.17724609375; 0.198193359375; 0.221557617188; 0.0829833984375
2.6; 0 ; 0 ; 0 ; 0 ; 0; 0.1095703125; 0.115209960937; 0.124072265625; 0.0322265625
2.7; 0 ; 0 ; 0 ; 0 ; 0; 0.0; 0.0; 0.0; 0.0
2.8; 0 ; 0 ; 0 ; 0 ; 0; 0.0; 0.0; 0.0; 0.0
2.9; 0 ; 0 ; 0 ; 0 ; 0; 0.0; 0.0; 0.0; 0.0
3.0; 0 ; 0 ; 0 ; 0 ; 0; 0.0; 0.0; 0.0; 0.0
3.1; 0 ; 0 ; 0 ; 0 ; 0; 0.0; 0.0; 0.0; 0.0
3.2; 0 ; 0 ; 0 ; 0 ; 0; 0.0; 0.0; 0.0; 0.0
3.3; 0 ; 0 ; 0 ; 0 ; 0; 0.0120849609375; 0.0; 0.0; 0.0
3.4; 0 ; 0 ; 0 ; 0 ; 0; 0.0; 0.0; 0.0; 0.0120849609375
3.5; 0 ; 0 ; 0 ; 0 ; 0; 0.00322265625; 0.0; 0.0; 0.014501953125
3.6; 0 ; 0 ; 0 ; 0 ; 0; 0.011279296875; 0.0056396484375; 0.001611328125; 0.0
3.7; 0 ; 0 ; 0 ; 0 ; 0; 0.024169921875; 0.020947265625; 0.0153076171875; 0.020947265625
3.8; 0 ; 0 ; 0 ; 0 ; 0; 0.06123046875; 0.0636474609375; 0.078955078125; 0.0668701171875
3.9; 0 ; 0 ; 0 ; 0 ; 0; 0.11923828125; 0.120849609375; 0.124072265625; 0.07734375
4.0; 0 ; 0 ; 0 ; 0 ; 0; 0.049951171875; 0.0636474609375; 0.072509765625; 0.0024169921875
4.1; 0 ; 0 ; 0 ; 0 ; 0; 0.0; 0.0; 0.0; 0.0
4.2; 0 ; 0 ; 0 ; 0 ; 0; 0.0; 0.0; 0.0; 0.0
4.3; 0 ; 0 ; 0 ; 0 ; 0; 0.0; 0.0; 0.0; 0.0
4.4; 0 ; 0 ; 0 ; 0 ; 0; 0.0; 0.0; 0.0; 0.0
4.5; 0 ; 0 ; 0 ; 0 ; 0; 0.0; 0.0; 0.0; 0.0
4.6; 0 ; 0 ; 0 ; 0 ; 0; 0.0; 0.0; 0.0; 0.0
4.7; 0 ; 0 ; 0 ; 0 ; 0; 0.0064453125; 0.0; 0.0; 0.0
4.8; 0 ; 0 ; 0 ; 0 ; 0; 0.0; 0.0; 0.0; 0.0088623046875
4.9; 0 ; 0 ; 0 ; 0 ; 0; 0.0; 0.0; 0.0; 0.0
5.0; 0 ; 0 ; 0 ; 0 ; 0; 0.020947265625; 0.011279296875; 0.0024169921875; 0.0040283203125
5.1; 0 ; 0 ; 0 ; 0 ; 0; 0.05478515625; 0.056396484375; 0.066064453125; 0.0
5.2; 0 ; 0 ; 0 ; 0 ; 0; 0.062841796875; 0.088623046875; 0.0958740234375; 0.11923828125
5.3; 0 ; 0 ; 0 ; 0 ; 0; 0.14501953125; 0.146630859375; 0.156298828125; 0.0958740234375
5.4; 0 ; 0 ; 0 ; 0 ; 0; 0.20625; 0.211889648437; 0.2255859375; 0.12568359375
5.5; 0 ; 0 ; 0 ; 0 ; 0; 0.17080078125; 0.191748046875; 0.214306640625; 0.0894287109375
5.6; 0 ; 0 ; 0 ; 0 ; 0; 0.17080078125; 0.191748046875; 0.215112304688; 0.078955078125
5.7; 0 ; 0 ; 0 ; 0 ; 0; 0.103125; 0.107958984375; 0.1095703125; 0.0314208984375
5.8; 0 ; 0 ; 0 ; 0 ; 0; 0.0; 0.0; 0.0; 0.0
5.9; 0 ; 0 ; 0 ; 0 ; 0; 0.0; 0.0; 0.0; 0.0
6.0; 0 ; 0 ; 0 ; 0 ; 0; 0.0; 0.0; 0.0; 0.0
6.1; 0 ; 0 ; 0 ; 0 ; 0; 0.0; 0.0; 0.0; 0.0
6.2; 0 ; 0 ; 0 ; 0 ; 0; 0.0; 0.0; 0.0; 0.0
6.3; 0 ; 0 ; 0 ; 0 ; 0; 0.008056640625; 0.0; 0.0; 0.0
6.4; 0 ; 0 ; 0 ; 0 ; 0; 0.0; 0.0; 0.0; 0.0040283203125
6.5; 0 ; 0 ; 0 ; 0 ; 0; 0.0; 0.0; 0.0; 0.0
6.6; 0 ; 0 ; 0 ; 0 ; 0; 0.008056640625; 0.0; 0.0; 0.0
6.7; 0 ; 0 ; 0 ; 0 ; 0; 0.00322265625; 0.0; 0.0; 0.0
6.8; 0 ; 0 ; 0 ; 0 ; 0; 0.024169921875; 0.0185302734375; 0.0120849609375; 0.01611328125
6.9; 0 ; 0 ; 0 ; 0 ; 0; 0.075732421875; 0.082177734375; 0.0966796875; 0.0668701171875
7.0; 0 ; 0 ; 0 ; 0 ; 0; 0.1353515625; 0.133740234375; 0.141796875; 0.0894287109375
7.1; 0 ; 0 ; 0 ; 0 ; 0; 0.17724609375; 0.191748046875; 0.219140625; 0.1224609375
7.2; 0 ; 0 ; 0 ; 0 ; 0; 0.18369140625; 0.211083984375; 0.207861328125; 0.088623046875
7.3; 0 ; 0 ; 0 ; 0 ; 0; 0.1740234375; 0.192553710938; 0.219140625; 0.08056640625
7.4; 0 ; 0 ; 0 ; 0 ; 0; 0.11279296875; 0.115209960937; 0.124072265625; 0.0378662109375
7.5; 0 ; 0 ; 0 ; 0 ; 0; 0.03544921875; 0.046728515625; 0.053173828125; 0.0
7.6; 0 ; 0 ; 0 ; 0 ; 0; 0.0; 0.0; 0.0; 0.0
7.7; 0 ; 0 ; 0 ; 0 ; 0; 0.0; 0.0; 0.0; 0.0
7.8; 0 ; 0 ; 0 ; 0 ; 0; 0.0; 0.0; 0.0; 0.0
7.9; 0 ; 0 ; 0 ; 0 ; 0; 0.0; 0.0; 0.0; 0.0
8.0; 0 ; 0 ; 0 ; 0 ; 0; 0.0; 0.0; 0.0; 0.0
8.1; 0 ; 0 ; 0 ; 0 ; 0; 0.0; 0.0; 0.0; 0.0024169921875
8.2; 0 ; 0 ; 0 ; 0 ; 0; 0.0; 0.0; 0.0; 0.0
8.3; 0 ; 0 ; 0 ; 0 ; 0; 0.008056640625; 0.0; 0.0; 0.0
8.4; 0 ; 0 ; 0 ; 0 ; 0; 0.0; 0.0; 0.0; 0.0
8.5; 0 ; 0 ; 0 ; 0 ; 0; 0.020947265625; 0.011279296875; 0.0024169921875; 0.0056396484375
8.6; 0 ; 0 ; 0 ; 0 ; 0; 0.06767578125; 0.072509765625; 0.085400390625; 0.0
8.7; 0 ; 0 ; 0 ; 0 ; 0; 0.069287109375; 0.101513671875; 0.111987304688; 0.115209960937
8.8; 0 ; 0 ; 0 ; 0 ; 0; 0.15146484375; 0.15791015625; 0.169189453125; 0.098291015625
8.9; 0 ; 0 ; 0 ; 0 ; 0; 0.211083984375; 0.223974609375; 0.240087890625; 0.116821289063
9.0; 0 ; 0 ; 0 ; 0 ; 0; 0.1740234375; 0.198193359375; 0.215112304688; 0.0966796875
9.1; 0 ; 0 ; 0 ; 0 ; 0; 0.15146484375; 0.165966796875; 0.182080078125; 0.059619140625
9.2; 0 ; 0 ; 0 ; 0 ; 0; 0.0837890625; 0.107958984375; 0.0990966796875; 0.024169921875
9.3; 0 ; 0 ; 0 ; 0 ; 0; 0.0; 0.0; 0.0; 0.0
9.4; 0 ; 0 ; 0 ; 0 ; 0; 0.0; 0.0; 0.0; 0.0
9.5; 0 ; 0 ; 0 ; 0 ; 0; 0.0; 0.0; 0.0; 0.0
9.6; 0 ; 0 ; 0 ; 0 ; 0; 0.0; 0.0; 0.0; 0.0
9.7; 0 ; 0 ; 0 ; 0 ; 0; 0.0; 0.0; 0.0; 0.0
9.8; 0 ; 0 ; 0 ; 0 ; 0; 0.011279296875; 0.0; 0.0; 0.0
9.9; 0 ; 0 ; 0 ; 0 ; 0; 0.0; 0.0; 0.0; 0.001611328125
10.0; 0 ; 0 ; 0 ; 0 ; 0; 0.0; 0.0; 0.0; 0.0
10.1; 0 ; 0 ; 0 ; 0 ; 0; 0.011279296875; 0.001611328125; 0.0; 0.0
10.2; 0 ; 0 ; 0 ; 0 ; 0; 0.00966796875; 0.004833984375; 0.001611328125; 0.0
10.3; 0 ; 0 ; 0 ; 0 ; 0; 0.030615234375; 0.0249755859375; 0.020947265625; 0.0249755859375
10.4; 0 ; 0 ; 0 ; 0 ; 0; 0.088623046875; 0.101513671875; 0.1224609375; 0.072509765625
10.5; 0 ; 0 ; 0 ; 0 ; 0; 0.14501953125; 0.146630859375; 0.1611328125; 0.0926513671875
10.6; 0 ; 0 ; 0 ; 0 ; 0; 0.20947265625; 0.217529296875; 0.227197265625; 0.12568359375
10.7; 0 ; 0 ; 0 ; 0 ; 0; 0.191748046875; 0.21591796875; 0.207861328125; 0.0894287109375
10.8; 0 ; 0 ; 0 ; 0 ; 0; 0.17724609375; 0.198193359375; 0.2255859375; 0.08056640625
10.9; 0 ; 0 ; 0 ; 0 ; 0; 0.103125; 0.107958984375; 0.111181640625; 0.0330322265625
11.0; 0 ; 0 ; 0 ; 0 ; 0; 0.0; 0.0; 0.0; 0.0
11.1; 0 ; 0 ; 0 ; 0 ; 0; 0.0; 0.0; 0.0; 0.0
11.2; 0 ; 0 ; 0 ; 0 ; 0; 0.0; 0.0; 0.0; 0.0
11.3; 0 ; 0 ; 0 ; 100 ; 0; 0.0; 0.0; 0.0; 0.0
11.4; 0 ; 0 ; 100 ; 100 ; 0; 0.0; 0.0; 0.0; 0.0
11.5; 0 ; 0 ; 100 ; 0 ; 0; 0.0; 0.0; 0.0; 0.0
11.6; 0 ; 0 ; 0 ; 0 ; 0; 0.008056640625; 0.0; 0.0; 0.0
11.7; 0 ; 100 ; 0 ; 0 ; 0; 0.0; 0.0; 0.0; 0.0
11.8; 0 ; 0 ; 0 ; 0 ; 0; 0.008056640625; 0.0; 0.0; 0.0
11.9; 0 ; 0 ; 100 ; 0 ; 0; 0.00322265625; 0.0; 0.0; 0.0
12.0; 0 ; 0 ; 100 ; 100 ; 0; 0.024169921875; 0.024169921875; 0.0153076171875; 0.020947265625
12.1; 0 ; 0 ; 100 ; 0 ; 0; 0.075732421875; 0.08701171875; 0.103125; 0.0708984375
12.2; 0 ; 100 ; 100 ; 0 ; 0; 0.140185546875; 0.140991210938; 0.149853515625; 0.0926513671875
12.3; 0 ; 100 ; 0 ; 0 ; 0; 0.17724609375; 0.198193359375; 0.2255859375; 0.124072265625
12.4;100 ; 100 ; 0 ; 0 ; 0; 0.19013671875; 0.218334960937; 0.220751953125; 0.0958740234375
12.5;100 ; 0 ; 0 ; 0 ; 0; 0.178857421875; 0.204638671875; 0.23203125; 0.088623046875
12.6;100 ; 0 ; 0 ; 100 ; 0; 0.140185546875; 0.159521484375; 0.175634765625; 0.0539794921875
12.7;100 ; 0 ; 0 ; 0 ; 0; 0.03544921875; 0.043505859375; 0.049951171875; 0.0
12.8;100 ; 100 ; 0 ; 0 ; 0; 0.0; 0.0; 0.0; 0.0
12.9;100 ; 100 ; 0 ; 100 ; 0; 0.0; 0.0; 0.0; 0.0
13.0;100 ; 0 ; 0 ; 100 ; 0; 0.0; 0.0; 0.0; 0.0
13.1;100 ; 0 ; 100 ; 100 ; 0; 0.0; 0.0; 0.0; 0.0
13.2; 0 ; 0 ; 100 ; 100 ; 0; 0.0; 0.0; 0.0; 0.0
13.3; 0 ; 0 ; 100 ; 0 ; 0; 0.008056640625; 0.0; 0.0; 0.0
13.4; 0 ; 0 ; 0 ; 0 ; 0; 0.0; 0.0; 0.0; 0.0
13.5; 0 ; 100 ; 0 ; 0 ; 0; 0.008056640625; 0.0; 0.0; 0.0
13.6;100 ; 100 ; 0 ; 0 ; 0; 0.0; 0.0; 0.0; 0.0
13.7;100 ; 0 ; 0 ; 0 ; 0; 0.024169921875; 0.017724609375; 0.0088623046875; 0.011279296875
13.8;100 ; 0 ; 100 ; 0 ; 0; 0.069287109375; 0.075732421875; 0.091845703125; 0.0700927734375
13.9;100 ; 0 ; 100 ; 0 ; 100; 0.13212890625; 0.128100585938; 0.143408203125; 0.0894287109375
14.0;100 ; 0 ; 100 ; 100 ; 100; 0.178857421875; 0.188525390625; 0.207861328125; 0.118432617188
14.1;100 ; 0 ; 100 ; 0 ; 100; 0.20947265625; 0.211889648437; 0.220751953125; 0.098291015625
14.2;100 ; 0 ; 0 ; 0 ; 100; 0.185302734375; 0.211083984375; 0.201416015625; 0.0966796875
14.3; 0 ; 0 ; 0 ; 0 ; 100; 0.15146484375; 0.165966796875; 0.182080078125; 0.0580078125
14.4; 0 ; 0 ; 0 ; 0 ; 0; 0.0451171875; 0.062841796875; 0.0668701171875; 0.0
14.5; 0 ; 100 ; 0 ; 0 ; 0; 0.0; 0.0; 0.0; 0.0
14.6; 0 ; 100 ; 0 ; 0 ; 100; 0.0; 0.0; 0.0; 0.0
14.7;100 ; 100 ; 0 ; 0 ; 100; 0.0; 0.0; 0.0; 0.0
14.8;100 ; 0 ; 0 ; 0 ; 100; 0.0; 0.0; 0.0; 0.0
14.9;100 ; 0 ; 100 ; 0 ; 100; 0.0; 0.0; 0.0; 0.0
15.0;100 ; 0 ; 100 ; 100 ; 100; 0.004833984375; 0.0; 0.0; 0.0
15.1;100 ; 0 ; 0 ; 100 ; 100; 0.0; 0.0; 0.0; 0.0
15.2;100 ; 0 ; 0 ; 0 ; 100; 0.0; 0.0; 0.0; 0.0
15.3;100 ; 0 ; 0 ; 100 ; 100; 0.008056640625; 0.0; 0.0; 0.0
15.4; 0 ; 0 ; 0 ; 100 ; 100; 0.01611328125; 0.011279296875; 0.0088623046875; 0.0
15.5; 0 ; 0 ; 0 ; 0 ; 100; 0.033837890625; 0.03544921875; 0.030615234375; 0.0378662109375
15.6; 0 ; 0 ; 0 ; 0 ; 0; 0.103125; 0.0958740234375; 0.1224609375; 0.078955078125
15.7; 0 ; 0 ; 0 ; 0 ; 0; 0.153076171875; 0.159521484375; 0.1740234375; 0.095068359375
15.8; 0 ; 0 ; 0 ; 0 ; 0; 0.211083984375; 0.218334960937; 0.23203125; 0.12890625
15.9; 0 ; 0 ; 0 ; 0 ; 0; 0.17724609375; 0.204638671875; 0.227197265625; 0.09990234375
16.0; 0 ; 0 ; 0 ; 0 ; 0; 0.17724609375; 0.20302734375; 0.23203125; 0.082177734375
16.1; 0 ; 0 ; 0 ; 0 ; 0; 0.0966796875; 0.120849609375; 0.117626953125; 0.02255859375
16.2; 0 ; 0 ; 0 ; 0 ; 0; 0.0; 0.0; 0.0; 0.0
16.3; 0 ; 0 ; 0 ; 0 ; 0; 0.0; 0.0; 0.0; 0.0
16.4; 0 ; 0 ; 0 ; 0 ; 0; 0.0; 0.0; 0.0; 0.0
16.5; 0 ; 0 ; 0 ; 0 ; 0; 0.0; 0.0; 0.0; 0.0
16.6; 0 ; 0 ; 0 ; 0 ; 0; 0.0; 0.0; 0.0; 0.0
16.7; 0 ; 0 ; 0 ; 0 ; 0; 0.0; 0.0; 0.0; 0.0
16.8; 0 ; 0 ; 0 ; 0 ; 0; 0.0; 0.0; 0.0; 0.0008056640625
16.9; 0 ; 0 ; 0 ; 0 ; 0; 0.0; 0.0; 0.0; 0.0
17.0; 0 ; 0 ; 0 ; 0 ; 0; 0.008056640625; 0.0; 0.0; 0.0
17.1; 0 ; 0 ; 0 ; 0 ; 0; 0.00966796875; 0.004833984375; 0.0024169921875; 0.0
17.2; 0 ; 0 ; 0 ; 0 ; 0; 0.027392578125; 0.0249755859375; 0.0185302734375; 0.0249755859375
17.3; 0 ; 0 ; 0 ; 0 ; 0; 0.088623046875; 0.101513671875; 0.120849609375; 0.082177734375
17.4; 0 ; 0 ; 0 ; 0 ; 0; 0.15146484375; 0.153076171875; 0.169189453125; 0.09345703125
17.5; 0 ; 0 ; 0 ; 0 ; 0; 0.20947265625; 0.21591796875; 0.23203125; 0.130517578125
17.6; 0 ; 0 ; 0 ; 0 ; 0; 0.20302734375; 0.231225585938; 0.233642578125; 0.103125
17.7; 0 ; 0 ; 0 ; 0 ; 0; 0.178857421875; 0.20625; 0.20625; 0.078955078125
17.8; 0 ; 0 ; 0 ; 0 ; 0; 0.11279296875; 0.115209960937; 0.117626953125; 0.02900390625
17.9; 0 ; 0 ; 0 ; 0 ; 0; 0.0; 0.0; 0.0; 0.0
18.0; 0 ; 0 ; 0 ; 0 ; 0; 0.0; 0.0; 0.0; 0.0
18.1; 0 ; 0 ; 0 ; 0 ; 0; 0.0; 0.0; 0.0; 0.0
18.2; 0 ; 0 ; 0 ; 0 ; 0; 0.0; 0.0; 0.0; 0.0
18.3; 0 ; 0 ; 0 ; 0 ; 0; 0.0; 0.0; 0.0; 0.0
18.4; 0 ; 0 ; 0 ; 0 ; 0; 0.0; 0.0; 0.0; 0.0
18.5; 0 ; 0 ; 0 ; 0 ; 0; 0.004833984375; 0.0; 0.0; 0.0
18.6; 0 ; 0 ; 0 ; 0 ; 0; 0.0; 0.0; 0.0; 0.001611328125
18.7; 0 ; 0 ; 0 ; 0 ; 0; 0.0; 0.0; 0.0; 0.0
18.8; 0 ; 0 ; 0 ; 0 ; 0; 0.011279296875; 0.0; 0.0; 0.0
18.9; 0 ; 0 ; 0 ; 0 ; 0; 0.02255859375; 0.017724609375; 0.0153076171875; 0.0
19.0; 0 ; 0 ; 0 ; 0 ; 0; 0.037060546875; 0.0443115234375; 0.0410888671875; 0.053173828125
19.1; 0 ; 0 ; 0 ; 0 ; 0; 0.11279296875; 0.108764648438; 0.118432617188; 0.085400390625
19.2; 0 ; 0 ; 0 ; 0 ; 0; 0.16435546875; 0.166772460938; 0.182080078125; 0.0990966796875
19.3; 0 ; 0 ; 0 ; 0 ; 0; 0.22236328125; 0.231225585938; 0.246533203125; 0.1224609375
19.4; 0 ; 0 ; 0 ; 0 ; 0; 0.17724609375; 0.20625; 0.202221679687; 0.098291015625
19.5; 0 ; 0 ; 0 ; 0 ; 0; 0.14501953125; 0.160327148438; 0.175634765625; 0.059619140625
19.6; 0 ; 0 ; 0 ; 0 ; 0; 0.08056640625; 0.101513671875; 0.117626953125; 0.0217529296875
19.7; 0 ; 0 ; 0 ; 0 ; 0; 0.0; 0.0; 0.0; 0.0
19.8; 0 ; 0 ; 0 ; 0 ; 0; 0.0; 0.0; 0.0; 0.0
19.9; 0 ; 0 ; 0 ; 0 ; 0; 0.0; 0.0; 0.0; 0.0
20.0; 0 ; 0 ; 0 ; 0 ; 0; 0.0; 0.0; 0.0; 0.0
NOVA ROTINA -- 2018-06-20 12:01:34

0; 0 ; 0 ; 0 ; 0 ; 0; 0.0; 0.0; 0.0; 0.0
0.1; 0 ; 0 ; 0 ; 0 ; 0; 0.011279296875; 0.0; 0.0; 0.0
0.2; 0 ; 0 ; 0 ; 0 ; 0; 0.01611328125; 0.011279296875; 0.008056640625; 0.0
0.3; 0 ; 0 ; 0 ; 0 ; 0; 0.030615234375; 0.03544921875; 0.030615234375; 0.0378662109375
0.4; 0 ; 0 ; 0 ; 0 ; 0; 0.095068359375; 0.107958984375; 0.105541992187; 0.078955078125
0.5; 0 ; 0 ; 0 ; 0 ; 0; 0.153076171875; 0.159521484375; 0.1740234375; 0.095068359375
0.6; 0 ; 0 ; 0 ; 0 ; 0; 0.207861328125; 0.21591796875; 0.233642578125; 0.131323242187
0.7; 0 ; 0 ; 0 ; 0 ; 0; 0.178857421875; 0.204638671875; 0.223974609375; 0.091845703125
0.8; 0 ; 0 ; 0 ; 0 ; 0; 0.153076171875; 0.173217773438; 0.194970703125; 0.062841796875
0.9; 0 ; 0 ; 0 ; 0 ; 0; 0.09990234375; 0.120849609375; 0.117626953125; 0.027392578125
1.0; 0 ; 0 ; 0 ; 0 ; 0; 0.0; 0.0; 0.0; 0.0
1.1; 0 ; 0 ; 0 ; 0 ; 0; 0.0; 0.0; 0.0; 0.0
1.2; 0 ; 0 ; 0 ; 0 ; 0; 0.0; 0.0; 0.0; 0.0
1.3; 0 ; 0 ; 0 ; 0 ; 0; 0.0; 0.0; 0.0; 0.0
1.4; 0 ; 0 ; 0 ; 0 ; 0; 0.0; 0.0; 0.0; 0.0
1.5; 0 ; 0 ; 0 ; 0 ; 0; 0.001611328125; 0.0; 0.0; 0.0
1.6; 0 ; 0 ; 0 ; 0 ; 0; 0.0; 0.0; 0.0; 0.0024169921875
1.7; 0 ; 0 ; 0 ; 0 ; 0; 0.0; 0.0; 0.0; 0.0
1.8; 0 ; 0 ; 0 ; 0 ; 0; 0.011279296875; 0.0; 0.0; 0.0
1.9; 0 ; 0 ; 0 ; 0 ; 0; 0.00966796875; 0.00322265625; 0.0; 0.0
2.0; 0 ; 0 ; 0 ; 0 ; 0; 0.030615234375; 0.0249755859375; 0.020947265625; 0.0249755859375
2.1; 0 ; 0 ; 0 ; 0 ; 0; 0.08056640625; 0.0894287109375; 0.105541992187; 0.0765380859375
2.2; 0 ; 0 ; 0 ; 0 ; 0; 0.140185546875; 0.140991210938; 0.150659179688; 0.085400390625
2.3;100 ; 0 ; 0 ; 0 ; 0; 0.165966796875; 0.185302734375; 0.214306640625; 0.1224609375
2.4;100 ; 0 ; 0 ; 100 ; 0; 0.198193359375; 0.22880859375; 0.23203125; 0.0926513671875
2.5; 0 ; 0 ; 0 ; 100 ; 0; 0.17724609375; 0.198193359375; 0.221557617188; 0.0829833984375
2.6; 0 ; 0 ; 100 ; 100 ; 0; 0.1095703125; 0.115209960937; 0.124072265625; 0.0322265625
2.7; 0 ; 0 ; 100 ; 0 ; 0; 0.0; 0.0; 0.0; 0.0
2.8; 0 ; 0 ; 100 ; 100 ; 0; 0.0; 0.0; 0.0; 0.0
2.9; 0 ; 0 ; 100 ; 100 ; 100; 0.0; 0.0; 0.0; 0.0
3.0; 0 ; 0 ; 0 ; 100 ; 100; 0.0; 0.0; 0.0; 0.0
3.1; 0 ; 0 ; 100 ; 100 ; 100; 0.0; 0.0; 0.0; 0.0
3.2;100 ; 0 ; 100 ; 100 ; 100; 0.0; 0.0; 0.0; 0.0
3.3;100 ; 0 ; 100 ; 0 ; 100; 0.0120849609375; 0.0; 0.0; 0.0
3.4;100 ; 0 ; 0 ; 0 ; 100; 0.0; 0.0; 0.0; 0.0120849609375
3.5; 0 ; 0 ; 0 ; 0 ; 100; 0.00322265625; 0.0; 0.0; 0.014501953125
3.6; 0 ; 0 ; 0 ; 0 ; 0; 0.011279296875; 0.0056396484375; 0.001611328125; 0.0
3.7; 0 ; 0 ; 0 ; 0 ; 0; 0.024169921875; 0.020947265625; 0.0153076171875; 0.020947265625
3.8; 0 ; 0 ; 0 ; 0 ; 0; 0.06123046875; 0.0636474609375; 0.078955078125; 0.0668701171875
3.9; 0 ; 0 ; 0 ; 0 ; 0; 0.11923828125; 0.120849609375; 0.124072265625; 0.07734375
4.0; 0 ; 0 ; 0 ; 0 ; 0; 0.049951171875; 0.0636474609375; 0.072509765625; 0.0024169921875
4.1; 0 ; 0 ; 0 ; 0 ; 0; 0.0; 0.0; 0.0; 0.0
4.2; 0 ; 0 ; 0 ; 0 ; 0; 0.0; 0.0; 0.0; 0.0
4.3; 0 ; 0 ; 0 ; 0 ; 0; 0.0; 0.0; 0.0; 0.0
4.4; 0 ; 0 ; 0 ; 0 ; 0; 0.0; 0.0; 0.0; 0.0
4.5; 0 ; 0 ; 0 ; 0 ; 0; 0.0; 0.0; 0.0; 0.0
4.6; 0 ; 0 ; 0 ; 0 ; 0; 0.0; 0.0; 0.0; 0.0
4.7; 0 ; 0 ; 0 ; 0 ; 0; 0.0064453125; 0.0; 0.0; 0.0
NOVA ROTINA -- 2018-07-03 14:46:00

0; 0 ; 0 ; 0 ; 0 ; 0; 0.0; 0.0; 0.0; 0.0
0.1; 0 ; 0 ; 0 ; 0 ; 0; 0.011279296875; 0.0; 0.0; 0.0
0.2; 0 ; 0 ; 0 ; 0 ; 0; 0.01611328125; 0.011279296875; 0.008056640625; 0.0
0.3; 0 ; 0 ; 0 ; 0 ; 0; 0.030615234375; 0.03544921875; 0.030615234375; 0.0378662109375
0.4; 0 ; 0 ; 0 ; 0 ; 0; 0.095068359375; 0.107958984375; 0.105541992187; 0.078955078125
0.5; 0 ; 0 ; 0 ; 0 ; 0; 0.153076171875; 0.159521484375; 0.1740234375; 0.095068359375
0.6; 0 ; 0 ; 0 ; 0 ; 0; 0.207861328125; 0.21591796875; 0.233642578125; 0.131323242187
0.7; 0 ; 0 ; 0 ; 0 ; 0; 0.178857421875; 0.204638671875; 0.223974609375; 0.091845703125
0.8; 0 ; 0 ; 0 ; 0 ; 0; 0.153076171875; 0.173217773438; 0.194970703125; 0.062841796875
0.9; 0 ; 0 ; 0 ; 0 ; 0; 0.09990234375; 0.120849609375; 0.117626953125; 0.027392578125
1.0; 0 ; 0 ; 0 ; 0 ; 0; 0.0; 0.0; 0.0; 0.0
1.1; 0 ; 0 ; 0 ; 0 ; 0; 0.0; 0.0; 0.0; 0.0
1.2; 0 ; 0 ; 0 ; 0 ; 0; 0.0; 0.0; 0.0; 0.0
1.3; 0 ; 0 ; 0 ; 0 ; 0; 0.0; 0.0; 0.0; 0.0
1.4; 0 ; 0 ; 0 ; 0 ; 0; 0.0; 0.0; 0.0; 0.0
1.5; 0 ; 0 ; 0 ; 0 ; 0; 0.001611328125; 0.0; 0.0; 0.0
1.6; 0 ; 0 ; 0 ; 0 ; 0; 0.0; 0.0; 0.0; 0.0024169921875
1.7; 0 ; 0 ; 0 ; 0 ; 0; 0.0; 0.0; 0.0; 0.0
1.8; 0 ; 0 ; 0 ; 0 ; 0; 0.011279296875; 0.0; 0.0; 0.0
1.9; 0 ; 0 ; 0 ; 0 ; 0; 0.00966796875; 0.00322265625; 0.0; 0.0
2.0; 0 ; 0 ; 0 ; 0 ; 0; 0.030615234375; 0.0249755859375; 0.020947265625; 0.0249755859375
2.1; 0 ; 0 ; 0 ; 0 ; 0; 0.08056640625; 0.0894287109375; 0.105541992187; 0.0765380859375
2.2; 0 ; 0 ; 0 ; 0 ; 0; 0.140185546875; 0.140991210938; 0.150659179688; 0.085400390625
2.3; 0 ; 0 ; 0 ; 0 ; 0; 0.165966796875; 0.185302734375; 0.214306640625; 0.1224609375
2.4; 0 ; 0 ; 0 ; 0 ; 0; 0.198193359375; 0.22880859375; 0.23203125; 0.0926513671875
2.5; 0 ; 0 ; 0 ; 0 ; 0; 0.17724609375; 0.198193359375; 0.221557617188; 0.0829833984375
2.6; 0 ; 0 ; 0 ; 0 ; 0; 0.1095703125; 0.115209960937; 0.124072265625; 0.0322265625
2.7; 0 ; 0 ; 0 ; 0 ; 0; 0.0; 0.0; 0.0; 0.0
2.8; 0 ; 0 ; 0 ; 0 ; 0; 0.0; 0.0; 0.0; 0.0
2.9; 0 ; 0 ; 0 ; 0 ; 0; 0.0; 0.0; 0.0; 0.0
3.0; 0 ; 0 ; 0 ; 0 ; 0; 0.0; 0.0; 0.0; 0.0
3.1; 0 ; 0 ; 0 ; 0 ; 0; 0.0; 0.0; 0.0; 0.0
3.2; 0 ; 0 ; 0 ; 0 ; 0; 0.0; 0.0; 0.0; 0.0
3.3; 0 ; 0 ; 0 ; 0 ; 0; 0.0120849609375; 0.0; 0.0; 0.0
3.4; 0 ; 0 ; 0 ; 0 ; 0; 0.0; 0.0; 0.0; 0.0120849609375
3.5; 0 ; 0 ; 0 ; 0 ; 0; 0.00322265625; 0.0; 0.0; 0.014501953125
3.6; 0 ; 0 ; 0 ; 0 ; 0; 0.011279296875; 0.0056396484375; 0.001611328125; 0.0
3.7; 0 ; 0 ; 0 ; 0 ; 0; 0.024169921875; 0.020947265625; 0.0153076171875; 0.020947265625
3.8; 0 ; 0 ; 0 ; 0 ; 0; 0.06123046875; 0.0636474609375; 0.078955078125; 0.0668701171875
3.9; 0 ; 0 ; 0 ; 0 ; 0; 0.11923828125; 0.120849609375; 0.124072265625; 0.07734375
4.0; 0 ; 0 ; 0 ; 0 ; 0; 0.049951171875; 0.0636474609375; 0.072509765625; 0.0024169921875
4.1; 0 ; 0 ; 0 ; 0 ; 0; 0.0; 0.0; 0.0; 0.0
4.2; 0 ; 0 ; 0 ; 0 ; 0; 0.0; 0.0; 0.0; 0.0
4.3; 0 ; 0 ; 0 ; 0 ; 0; 0.0; 0.0; 0.0; 0.0
4.4; 0 ; 0 ; 0 ; 0 ; 0; 0.0; 0.0; 0.0; 0.0
4.5; 0 ; 0 ; 0 ; 0 ; 0; 0.0; 0.0; 0.0; 0.0
4.6; 0 ; 0 ; 0 ; 0 ; 0; 0.0; 0.0; 0.0; 0.0
4.7; 0 ; 0 ; 0 ; 0 ; 0; 0.0064453125; 0.0; 0.0; 0.0
4.8; 0 ; 0 ; 0 ; 0 ; 0; 0.0; 0.0; 0.0; 0.0088623046875
4.9; 0 ; 0 ; 0 ; 0 ; 0; 0.0; 0.0; 0.0; 0.0
5.0; 0 ; 0 ; 0 ; 0 ; 0; 0.020947265625; 0.011279296875; 0.0024169921875; 0.0040283203125
5.1; 0 ; 0 ; 0 ; 0 ; 0; 0.05478515625; 0.056396484375; 0.066064453125; 0.0
5.2; 0 ; 0 ; 0 ; 0 ; 0; 0.062841796875; 0.088623046875; 0.0958740234375; 0.11923828125
5.3; 0 ; 0 ; 0 ; 0 ; 0; 0.14501953125; 0.146630859375; 0.156298828125; 0.0958740234375
5.4; 0 ; 0 ; 0 ; 0 ; 0; 0.20625; 0.211889648437; 0.2255859375; 0.12568359375
5.5; 0 ; 0 ; 0 ; 0 ; 0; 0.17080078125; 0.191748046875; 0.214306640625; 0.0894287109375
5.6; 0 ; 0 ; 0 ; 0 ; 0; 0.17080078125; 0.191748046875; 0.215112304688; 0.078955078125
5.7; 0 ; 0 ; 0 ; 0 ; 0; 0.103125; 0.107958984375; 0.1095703125; 0.0314208984375
5.8; 0 ; 0 ; 0 ; 0 ; 0; 0.0; 0.0; 0.0; 0.0
5.9; 0 ; 0 ; 0 ; 0 ; 0; 0.0; 0.0; 0.0; 0.0
6.0; 0 ; 0 ; 0 ; 0 ; 0; 0.0; 0.0; 0.0; 0.0
6.1; 0 ; 0 ; 0 ; 0 ; 0; 0.0; 0.0; 0.0; 0.0
6.2; 0 ; 0 ; 0 ; 0 ; 0; 0.0; 0.0; 0.0; 0.0
6.3; 0 ; 0 ; 0 ; 0 ; 0; 0.008056640625; 0.0; 0.0; 0.0
6.4; 0 ; 0 ; 0 ; 0 ; 0; 0.0; 0.0; 0.0; 0.0040283203125
6.5; 0 ; 0 ; 0 ; 0 ; 0; 0.0; 0.0; 0.0; 0.0
6.6; 0 ; 0 ; 0 ; 0 ; 0; 0.008056640625; 0.0; 0.0; 0.0
6.7; 0 ; 0 ; 0 ; 0 ; 0; 0.00322265625; 0.0; 0.0; 0.0
6.8; 0 ; 0 ; 0 ; 0 ; 0; 0.024169921875; 0.0185302734375; 0.0120849609375; 0.01611328125
6.9; 0 ; 0 ; 0 ; 0 ; 0; 0.075732421875; 0.082177734375; 0.0966796875; 0.0668701171875
7.0; 0 ; 0 ; 0 ; 0 ; 0; 0.1353515625; 0.133740234375; 0.141796875; 0.0894287109375
7.1; 0 ; 0 ; 0 ; 0 ; 0; 0.17724609375; 0.191748046875; 0.219140625; 0.1224609375
7.2; 0 ; 0 ; 0 ; 0 ; 0; 0.18369140625; 0.211083984375; 0.207861328125; 0.088623046875
7.3; 0 ; 0 ; 0 ; 0 ; 0; 0.1740234375; 0.192553710938; 0.219140625; 0.08056640625
7.4; 0 ; 0 ; 0 ; 0 ; 0; 0.11279296875; 0.115209960937; 0.124072265625; 0.0378662109375
7.5; 0 ; 0 ; 0 ; 0 ; 0; 0.03544921875; 0.046728515625; 0.053173828125; 0.0
7.6; 0 ; 0 ; 0 ; 0 ; 0; 0.0; 0.0; 0.0; 0.0
7.7; 0 ; 0 ; 0 ; 0 ; 0; 0.0; 0.0; 0.0; 0.0
7.8; 0 ; 0 ; 0 ; 0 ; 0; 0.0; 0.0; 0.0; 0.0
7.9; 0 ; 0 ; 0 ; 0 ; 0; 0.0; 0.0; 0.0; 0.0
8.0; 0 ; 0 ; 0 ; 0 ; 0; 0.0; 0.0; 0.0; 0.0
8.1; 0 ; 0 ; 0 ; 0 ; 0; 0.0; 0.0; 0.0; 0.0024169921875
8.2; 0 ; 0 ; 0 ; 0 ; 0; 0.0; 0.0; 0.0; 0.0
8.3; 0 ; 0 ; 0 ; 0 ; 0; 0.008056640625; 0.0; 0.0; 0.0
8.4; 0 ; 0 ; 0 ; 0 ; 0; 0.0; 0.0; 0.0; 0.0
8.5; 0 ; 0 ; 0 ; 0 ; 0; 0.020947265625; 0.011279296875; 0.0024169921875; 0.0056396484375
8.6; 0 ; 0 ; 0 ; 0 ; 0; 0.06767578125; 0.072509765625; 0.085400390625; 0.0
8.7; 0 ; 0 ; 0 ; 0 ; 0; 0.069287109375; 0.101513671875; 0.111987304688; 0.115209960937
8.8; 0 ; 0 ; 0 ; 0 ; 0; 0.15146484375; 0.15791015625; 0.169189453125; 0.098291015625
8.9; 0 ; 0 ; 0 ; 0 ; 0; 0.211083984375; 0.223974609375; 0.240087890625; 0.116821289063
9.0; 0 ; 0 ; 0 ; 0 ; 0; 0.1740234375; 0.198193359375; 0.215112304688; 0.0966796875
9.1; 0 ; 0 ; 0 ; 0 ; 0; 0.15146484375; 0.165966796875; 0.182080078125; 0.059619140625
9.2; 0 ; 0 ; 0 ; 0 ; 0; 0.0837890625; 0.107958984375; 0.0990966796875; 0.024169921875
9.3; 0 ; 0 ; 0 ; 0 ; 0; 0.0; 0.0; 0.0; 0.0
9.4; 0 ; 0 ; 0 ; 0 ; 0; 0.0; 0.0; 0.0; 0.0
9.5; 0 ; 0 ; 0 ; 0 ; 0; 0.0; 0.0; 0.0; 0.0
9.6; 0 ; 0 ; 0 ; 0 ; 0; 0.0; 0.0; 0.0; 0.0
9.7; 0 ; 0 ; 0 ; 0 ; 0; 0.0; 0.0; 0.0; 0.0
9.8; 0 ; 0 ; 0 ; 0 ; 0; 0.011279296875; 0.0; 0.0; 0.0
9.9; 0 ; 0 ; 0 ; 0 ; 0; 0.0; 0.0; 0.0; 0.001611328125
10.0; 0 ; 0 ; 0 ; 0 ; 0; 0.0; 0.0; 0.0; 0.0
10.1; 0 ; 0 ; 0 ; 0 ; 0; 0.011279296875; 0.001611328125; 0.0; 0.0
10.2; 0 ; 0 ; 0 ; 0 ; 0; 0.00966796875; 0.004833984375; 0.001611328125; 0.0
10.3; 0 ; 0 ; 0 ; 0 ; 0; 0.030615234375; 0.0249755859375; 0.020947265625; 0.0249755859375
10.4; 0 ; 0 ; 0 ; 0 ; 0; 0.088623046875; 0.101513671875; 0.1224609375; 0.072509765625
10.5; 0 ; 0 ; 0 ; 0 ; 0; 0.14501953125; 0.146630859375; 0.1611328125; 0.0926513671875
10.6; 0 ; 0 ; 0 ; 0 ; 0; 0.20947265625; 0.217529296875; 0.227197265625; 0.12568359375
10.7; 0 ; 0 ; 0 ; 0 ; 0; 0.191748046875; 0.21591796875; 0.207861328125; 0.0894287109375
10.8; 0 ; 0 ; 0 ; 0 ; 0; 0.17724609375; 0.198193359375; 0.2255859375; 0.08056640625
10.9; 0 ; 0 ; 0 ; 0 ; 0; 0.103125; 0.107958984375; 0.111181640625; 0.0330322265625
11.0; 0 ; 0 ; 0 ; 0 ; 0; 0.0; 0.0; 0.0; 0.0
11.1; 0 ; 0 ; 0 ; 0 ; 0; 0.0; 0.0; 0.0; 0.0
11.2; 0 ; 0 ; 0 ; 0 ; 0; 0.0; 0.0; 0.0; 0.0
11.3; 0 ; 0 ; 0 ; 0 ; 0; 0.0; 0.0; 0.0; 0.0
11.4; 0 ; 0 ; 0 ; 0 ; 0; 0.0; 0.0; 0.0; 0.0
11.5; 0 ; 0 ; 0 ; 0 ; 0; 0.0; 0.0; 0.0; 0.0
11.6; 0 ; 0 ; 0 ; 0 ; 0; 0.008056640625; 0.0; 0.0; 0.0
11.7; 0 ; 0 ; 0 ; 0 ; 0; 0.0; 0.0; 0.0; 0.0
11.8; 0 ; 0 ; 0 ; 0 ; 0; 0.008056640625; 0.0; 0.0; 0.0
11.9; 0 ; 0 ; 0 ; 0 ; 0; 0.00322265625; 0.0; 0.0; 0.0
12.0; 0 ; 0 ; 0 ; 0 ; 0; 0.024169921875; 0.024169921875; 0.0153076171875; 0.020947265625
12.1; 0 ; 0 ; 0 ; 0 ; 0; 0.075732421875; 0.08701171875; 0.103125; 0.0708984375
12.2; 0 ; 0 ; 0 ; 0 ; 0; 0.140185546875; 0.140991210938; 0.149853515625; 0.0926513671875
12.3; 0 ; 0 ; 0 ; 0 ; 0; 0.17724609375; 0.198193359375; 0.2255859375; 0.124072265625
12.4; 0 ; 0 ; 0 ; 0 ; 0; 0.19013671875; 0.218334960937; 0.220751953125; 0.0958740234375
12.5; 0 ; 0 ; 0 ; 0 ; 0; 0.178857421875; 0.204638671875; 0.23203125; 0.088623046875
12.6; 0 ; 0 ; 0 ; 0 ; 0; 0.140185546875; 0.159521484375; 0.175634765625; 0.0539794921875
12.7; 0 ; 0 ; 0 ; 0 ; 0; 0.03544921875; 0.043505859375; 0.049951171875; 0.0
12.8; 0 ; 0 ; 0 ; 0 ; 0; 0.0; 0.0; 0.0; 0.0
12.9; 0 ; 0 ; 0 ; 0 ; 0; 0.0; 0.0; 0.0; 0.0
13.0; 0 ; 0 ; 0 ; 0 ; 0; 0.0; 0.0; 0.0; 0.0
13.1; 0 ; 0 ; 0 ; 0 ; 0; 0.0; 0.0; 0.0; 0.0
13.2; 0 ; 0 ; 0 ; 0 ; 0; 0.0; 0.0; 0.0; 0.0
13.3; 0 ; 0 ; 0 ; 0 ; 0; 0.008056640625; 0.0; 0.0; 0.0
13.4; 0 ; 0 ; 0 ; 0 ; 0; 0.0; 0.0; 0.0; 0.0
13.5; 0 ; 0 ; 0 ; 0 ; 0; 0.008056640625; 0.0; 0.0; 0.0
NOVA ROTINA -- 2018-07-03 19:28:29

0; 0 ; 0 ; 0 ; 0 ; 0; 0.0; 0.0; 0.0; 0.0
0.1; 0 ; 0 ; 0 ; 0 ; 0; 0.011279296875; 0.0; 0.0; 0.0
0.2; 0 ; 0 ; 0 ; 0 ; 0; 0.01611328125; 0.011279296875; 0.008056640625; 0.0
0.3; 0 ; 0 ; 0 ; 0 ; 0; 0.030615234375; 0.03544921875; 0.030615234375; 0.0378662109375
0.4; 0 ; 0 ; 0 ; 0 ; 0; 0.095068359375; 0.107958984375; 0.105541992187; 0.078955078125
0.5; 0 ; 0 ; 0 ; 0 ; 0; 0.153076171875; 0.159521484375; 0.1740234375; 0.095068359375
0.6; 0 ; 0 ; 0 ; 0 ; 0; 0.207861328125; 0.21591796875; 0.233642578125; 0.131323242187
0.7; 0 ; 0 ; 0 ; 0 ; 0; 0.178857421875; 0.204638671875; 0.223974609375; 0.091845703125
0.8; 0 ; 0 ; 0 ; 0 ; 0; 0.153076171875; 0.173217773438; 0.194970703125; 0.062841796875
0.9; 0 ; 0 ; 0 ; 0 ; 0; 0.09990234375; 0.120849609375; 0.117626953125; 0.027392578125
1.0; 0 ; 0 ; 0 ; 0 ; 0; 0.0; 0.0; 0.0; 0.0
1.1; 0 ; 0 ; 0 ; 0 ; 0; 0.0; 0.0; 0.0; 0.0
1.2; 0 ; 0 ; 0 ; 0 ; 0; 0.0; 0.0; 0.0; 0.0
1.3; 0 ; 0 ; 0 ; 0 ; 0; 0.0; 0.0; 0.0; 0.0
1.4; 0 ; 0 ; 0 ; 0 ; 0; 0.0; 0.0; 0.0; 0.0
1.5; 0 ; 0 ; 0 ; 0 ; 0; 0.001611328125; 0.0; 0.0; 0.0
1.6; 0 ; 0 ; 0 ; 0 ; 0; 0.0; 0.0; 0.0; 0.0024169921875
1.7; 0 ; 0 ; 0 ; 0 ; 0; 0.0; 0.0; 0.0; 0.0
1.8; 0 ; 0 ; 0 ; 0 ; 0; 0.011279296875; 0.0; 0.0; 0.0
1.9; 0 ; 0 ; 0 ; 0 ; 0; 0.00966796875; 0.00322265625; 0.0; 0.0
2.0; 0 ; 0 ; 0 ; 0 ; 0; 0.030615234375; 0.0249755859375; 0.020947265625; 0.0249755859375
2.1; 0 ; 0 ; 0 ; 0 ; 0; 0.08056640625; 0.0894287109375; 0.105541992187; 0.0765380859375
2.2; 0 ; 0 ; 0 ; 0 ; 0; 0.140185546875; 0.140991210938; 0.150659179688; 0.085400390625
2.3; 0 ; 0 ; 0 ; 0 ; 0; 0.165966796875; 0.185302734375; 0.214306640625; 0.1224609375
2.4; 0 ; 0 ; 0 ; 0 ; 0; 0.198193359375; 0.22880859375; 0.23203125; 0.0926513671875
2.5; 0 ; 0 ; 0 ; 0 ; 0; 0.17724609375; 0.198193359375; 0.221557617188; 0.0829833984375
2.6; 0 ; 0 ; 0 ; 0 ; 0; 0.1095703125; 0.115209960937; 0.124072265625; 0.0322265625
2.7; 0 ; 0 ; 0 ; 0 ; 0; 0.0; 0.0; 0.0; 0.0
2.8; 0 ; 0 ; 0 ; 0 ; 0; 0.0; 0.0; 0.0; 0.0
2.9; 0 ; 0 ; 0 ; 0 ; 0; 0.0; 0.0; 0.0; 0.0
3.0; 0 ; 0 ; 0 ; 0 ; 0; 0.0; 0.0; 0.0; 0.0
3.1; 0 ; 0 ; 0 ; 0 ; 0; 0.0; 0.0; 0.0; 0.0
3.2; 0 ; 0 ; 0 ; 0 ; 0; 0.0; 0.0; 0.0; 0.0
3.3; 0 ; 0 ; 0 ; 0 ; 0; 0.0120849609375; 0.0; 0.0; 0.0
3.4; 0 ; 0 ; 0 ; 0 ; 0; 0.0; 0.0; 0.0; 0.0120849609375
3.5; 0 ; 0 ; 0 ; 0 ; 0; 0.00322265625; 0.0; 0.0; 0.014501953125
3.6; 0 ; 0 ; 0 ; 0 ; 0; 0.011279296875; 0.0056396484375; 0.001611328125; 0.0
3.7; 0 ; 0 ; 0 ; 0 ; 0; 0.024169921875; 0.020947265625; 0.0153076171875; 0.020947265625
3.8; 0 ; 0 ; 0 ; 0 ; 0; 0.06123046875; 0.0636474609375; 0.078955078125; 0.0668701171875
3.9; 0 ; 0 ; 0 ; 0 ; 0; 0.11923828125; 0.120849609375; 0.124072265625; 0.07734375
4.0; 0 ; 0 ; 0 ; 0 ; 0; 0.049951171875; 0.0636474609375; 0.072509765625; 0.0024169921875
4.1; 0 ; 0 ; 0 ; 0 ; 0; 0.0; 0.0; 0.0; 0.0
4.2; 0 ; 0 ; 0 ; 0 ; 0; 0.0; 0.0; 0.0; 0.0
4.3; 0 ; 0 ; 0 ; 0 ; 0; 0.0; 0.0; 0.0; 0.0
4.4; 0 ; 0 ; 0 ; 0 ; 0; 0.0; 0.0; 0.0; 0.0
4.5; 0 ; 0 ; 0 ; 0 ; 0; 0.0; 0.0; 0.0; 0.0
4.6; 0 ; 0 ; 0 ; 0 ; 0; 0.0; 0.0; 0.0; 0.0
4.7; 0 ; 0 ; 0 ; 0 ; 0; 0.0064453125; 0.0; 0.0; 0.0
4.8; 0 ; 0 ; 0 ; 0 ; 0; 0.0; 0.0; 0.0; 0.0088623046875
4.9; 0 ; 0 ; 0 ; 0 ; 0; 0.0; 0.0; 0.0; 0.0
5.0; 0 ; 0 ; 0 ; 0 ; 0; 0.020947265625; 0.011279296875; 0.0024169921875; 0.0040283203125
5.1; 0 ; 0 ; 0 ; 0 ; 0; 0.05478515625; 0.056396484375; 0.066064453125; 0.0
5.2; 0 ; 0 ; 0 ; 0 ; 0; 0.062841796875; 0.088623046875; 0.0958740234375; 0.11923828125
5.3; 0 ; 0 ; 0 ; 0 ; 0; 0.14501953125; 0.146630859375; 0.156298828125; 0.0958740234375
5.4; 0 ; 0 ; 0 ; 0 ; 0; 0.20625; 0.211889648437; 0.2255859375; 0.12568359375
5.5; 0 ; 0 ; 0 ; 0 ; 0; 0.17080078125; 0.191748046875; 0.214306640625; 0.0894287109375
5.6; 0 ; 0 ; 0 ; 0 ; 0; 0.17080078125; 0.191748046875; 0.215112304688; 0.078955078125
5.7; 0 ; 0 ; 0 ; 0 ; 0; 0.103125; 0.107958984375; 0.1095703125; 0.0314208984375
5.8; 0 ; 0 ; 0 ; 0 ; 0; 0.0; 0.0; 0.0; 0.0
5.9; 0 ; 0 ; 0 ; 0 ; 0; 0.0; 0.0; 0.0; 0.0
6.0; 0 ; 0 ; 0 ; 0 ; 0; 0.0; 0.0; 0.0; 0.0
6.1; 0 ; 0 ; 0 ; 0 ; 0; 0.0; 0.0; 0.0; 0.0
6.2; 0 ; 0 ; 0 ; 0 ; 0; 0.0; 0.0; 0.0; 0.0
6.3; 0 ; 0 ; 0 ; 0 ; 0; 0.008056640625; 0.0; 0.0; 0.0
6.4; 0 ; 0 ; 0 ; 0 ; 0; 0.0; 0.0; 0.0; 0.0040283203125
6.5; 0 ; 0 ; 0 ; 0 ; 0; 0.0; 0.0; 0.0; 0.0
6.6; 0 ; 0 ; 0 ; 0 ; 0; 0.008056640625; 0.0; 0.0; 0.0
6.7; 0 ; 0 ; 0 ; 0 ; 0; 0.00322265625; 0.0; 0.0; 0.0
6.8; 0 ; 0 ; 0 ; 0 ; 0; 0.024169921875; 0.0185302734375; 0.0120849609375; 0.01611328125
6.9; 0 ; 0 ; 0 ; 0 ; 0; 0.075732421875; 0.082177734375; 0.0966796875; 0.0668701171875
7.0; 0 ; 0 ; 0 ; 0 ; 0; 0.1353515625; 0.133740234375; 0.141796875; 0.0894287109375
7.1; 0 ; 0 ; 0 ; 0 ; 0; 0.17724609375; 0.191748046875; 0.219140625; 0.1224609375
7.2; 0 ; 0 ; 0 ; 0 ; 0; 0.18369140625; 0.211083984375; 0.207861328125; 0.088623046875
7.3; 0 ; 0 ; 0 ; 0 ; 0; 0.1740234375; 0.192553710938; 0.219140625; 0.08056640625
7.4; 0 ; 0 ; 0 ; 0 ; 0; 0.11279296875; 0.115209960937; 0.124072265625; 0.0378662109375
7.5; 0 ; 0 ; 0 ; 0 ; 0; 0.03544921875; 0.046728515625; 0.053173828125; 0.0
7.6; 0 ; 0 ; 0 ; 0 ; 0; 0.0; 0.0; 0.0; 0.0
7.7; 0 ; 0 ; 0 ; 0 ; 0; 0.0; 0.0; 0.0; 0.0
7.8; 0 ; 0 ; 0 ; 0 ; 0; 0.0; 0.0; 0.0; 0.0
7.9; 0 ; 0 ; 0 ; 0 ; 0; 0.0; 0.0; 0.0; 0.0
8.0; 0 ; 0 ; 0 ; 0 ; 0; 0.0; 0.0; 0.0; 0.0
8.1; 0 ; 0 ; 0 ; 0 ; 0; 0.0; 0.0; 0.0; 0.0024169921875
8.2; 0 ; 0 ; 0 ; 0 ; 0; 0.0; 0.0; 0.0; 0.0
8.3; 0 ; 0 ; 0 ; 0 ; 0; 0.008056640625; 0.0; 0.0; 0.0
8.4; 0 ; 0 ; 0 ; 0 ; 0; 0.0; 0.0; 0.0; 0.0
8.5; 0 ; 0 ; 0 ; 0 ; 0; 0.020947265625; 0.011279296875; 0.0024169921875; 0.0056396484375
8.6; 0 ; 0 ; 0 ; 0 ; 0; 0.06767578125; 0.072509765625; 0.085400390625; 0.0
8.7; 0 ; 0 ; 0 ; 0 ; 0; 0.069287109375; 0.101513671875; 0.111987304688; 0.115209960937
8.8; 0 ; 0 ; 0 ; 0 ; 0; 0.15146484375; 0.15791015625; 0.169189453125; 0.098291015625
8.9; 0 ; 0 ; 0 ; 0 ; 0; 0.211083984375; 0.223974609375; 0.240087890625; 0.116821289063
9.0; 0 ; 0 ; 0 ; 0 ; 0; 0.1740234375; 0.198193359375; 0.215112304688; 0.0966796875
9.1; 0 ; 0 ; 0 ; 0 ; 0; 0.15146484375; 0.165966796875; 0.182080078125; 0.059619140625
9.2; 0 ; 0 ; 0 ; 0 ; 0; 0.0837890625; 0.107958984375; 0.0990966796875; 0.024169921875
9.3; 0 ; 0 ; 0 ; 0 ; 0; 0.0; 0.0; 0.0; 0.0
9.4; 0 ; 0 ; 0 ; 0 ; 0; 0.0; 0.0; 0.0; 0.0
9.5; 0 ; 0 ; 0 ; 0 ; 0; 0.0; 0.0; 0.0; 0.0
9.6; 0 ; 0 ; 0 ; 0 ; 0; 0.0; 0.0; 0.0; 0.0
9.7; 0 ; 0 ; 0 ; 0 ; 0; 0.0; 0.0; 0.0; 0.0
9.8; 0 ; 0 ; 0 ; 0 ; 0; 0.011279296875; 0.0; 0.0; 0.0
9.9; 0 ; 0 ; 0 ; 0 ; 0; 0.0; 0.0; 0.0; 0.001611328125
10.0; 0 ; 0 ; 0 ; 0 ; 0; 0.0; 0.0; 0.0; 0.0
10.1; 0 ; 0 ; 0 ; 0 ; 0; 0.011279296875; 0.001611328125; 0.0; 0.0
10.2; 0 ; 0 ; 0 ; 0 ; 0; 0.00966796875; 0.004833984375; 0.001611328125; 0.0
10.3; 0 ; 0 ; 0 ; 0 ; 0; 0.030615234375; 0.0249755859375; 0.020947265625; 0.0249755859375
10.4; 0 ; 0 ; 0 ; 0 ; 0; 0.088623046875; 0.101513671875; 0.1224609375; 0.072509765625
10.5; 0 ; 0 ; 0 ; 0 ; 0; 0.14501953125; 0.146630859375; 0.1611328125; 0.0926513671875
10.6; 0 ; 0 ; 0 ; 0 ; 0; 0.20947265625; 0.217529296875; 0.227197265625; 0.12568359375
10.7; 0 ; 0 ; 0 ; 0 ; 0; 0.191748046875; 0.21591796875; 0.207861328125; 0.0894287109375
10.8; 0 ; 0 ; 0 ; 0 ; 0; 0.17724609375; 0.198193359375; 0.2255859375; 0.08056640625
10.9; 0 ; 0 ; 0 ; 0 ; 0; 0.103125; 0.107958984375; 0.111181640625; 0.0330322265625
11.0; 0 ; 0 ; 0 ; 0 ; 0; 0.0; 0.0; 0.0; 0.0
11.1; 0 ; 0 ; 0 ; 0 ; 0; 0.0; 0.0; 0.0; 0.0
11.2; 0 ; 0 ; 0 ; 0 ; 0; 0.0; 0.0; 0.0; 0.0
11.3; 0 ; 0 ; 0 ; 0 ; 0; 0.0; 0.0; 0.0; 0.0
11.4; 0 ; 0 ; 0 ; 0 ; 0; 0.0; 0.0; 0.0; 0.0
11.5; 0 ; 0 ; 0 ; 0 ; 0; 0.0; 0.0; 0.0; 0.0
11.6; 0 ; 0 ; 0 ; 0 ; 0; 0.008056640625; 0.0; 0.0; 0.0
11.7; 0 ; 0 ; 0 ; 0 ; 0; 0.0; 0.0; 0.0; 0.0
11.8; 0 ; 0 ; 0 ; 0 ; 0; 0.008056640625; 0.0; 0.0; 0.0
11.9; 0 ; 0 ; 0 ; 0 ; 0; 0.00322265625; 0.0; 0.0; 0.0
12.0; 0 ; 0 ; 0 ; 0 ; 0; 0.024169921875; 0.024169921875; 0.0153076171875; 0.020947265625
12.1; 0 ; 0 ; 0 ; 0 ; 0; 0.075732421875; 0.08701171875; 0.103125; 0.0708984375
12.2; 0 ; 0 ; 0 ; 0 ; 0; 0.140185546875; 0.140991210938; 0.149853515625; 0.0926513671875
12.3; 0 ; 0 ; 0 ; 0 ; 0; 0.17724609375; 0.198193359375; 0.2255859375; 0.124072265625
12.4; 0 ; 0 ; 0 ; 0 ; 0; 0.19013671875; 0.218334960937; 0.220751953125; 0.0958740234375
12.5; 0 ; 0 ; 0 ; 0 ; 0; 0.178857421875; 0.204638671875; 0.23203125; 0.088623046875
12.6; 0 ; 0 ; 0 ; 0 ; 0; 0.140185546875; 0.159521484375; 0.175634765625; 0.0539794921875
12.7; 0 ; 0 ; 0 ; 0 ; 0; 0.03544921875; 0.043505859375; 0.049951171875; 0.0
12.8; 0 ; 0 ; 0 ; 0 ; 0; 0.0; 0.0; 0.0; 0.0
12.9; 0 ; 0 ; 0 ; 0 ; 0; 0.0; 0.0; 0.0; 0.0
13.0; 0 ; 0 ; 0 ; 0 ; 0; 0.0; 0.0; 0.0; 0.0
13.1; 0 ; 0 ; 0 ; 0 ; 0; 0.0; 0.0; 0.0; 0.0
13.2; 0 ; 0 ; 0 ; 0 ; 0; 0.0; 0.0; 0.0; 0.0
13.3; 0 ; 0 ; 0 ; 0 ; 0; 0.008056640625; 0.0; 0.0; 0.0
13.4; 0 ; 0 ; 0 ; 0 ; 0; 0.0; 0.0; 0.0; 0.0
13.5; 0 ; 0 ; 0 ; 0 ; 0; 0.008056640625; 0.0; 0.0; 0.0
13.6; 0 ; 0 ; 0 ; 0 ; 0; 0.0; 0.0; 0.0; 0.0
13.7; 0 ; 0 ; 0 ; 0 ; 0; 0.024169921875; 0.017724609375; 0.0088623046875; 0.011279296875
13.8; 0 ; 0 ; 0 ; 0 ; 0; 0.069287109375; 0.075732421875; 0.091845703125; 0.0700927734375
13.9; 0 ; 0 ; 0 ; 0 ; 0; 0.13212890625; 0.128100585938; 0.143408203125; 0.0894287109375
14.0; 0 ; 0 ; 0 ; 0 ; 0; 0.178857421875; 0.188525390625; 0.207861328125; 0.118432617188
14.1; 0 ; 0 ; 0 ; 0 ; 0; 0.20947265625; 0.211889648437; 0.220751953125; 0.098291015625
14.2; 0 ; 0 ; 0 ; 0 ; 0; 0.185302734375; 0.211083984375; 0.201416015625; 0.0966796875
14.3; 0 ; 0 ; 0 ; 0 ; 0; 0.15146484375; 0.165966796875; 0.182080078125; 0.0580078125
14.4; 0 ; 0 ; 0 ; 0 ; 0; 0.0451171875; 0.062841796875; 0.0668701171875; 0.0
14.5; 0 ; 0 ; 0 ; 0 ; 0; 0.0; 0.0; 0.0; 0.0
14.6; 0 ; 0 ; 0 ; 0 ; 0; 0.0; 0.0; 0.0; 0.0
14.7; 0 ; 0 ; 0 ; 0 ; 0; 0.0; 0.0; 0.0; 0.0
14.8; 0 ; 0 ; 0 ; 0 ; 0; 0.0; 0.0; 0.0; 0.0
14.9; 0 ; 0 ; 0 ; 0 ; 0; 0.0; 0.0; 0.0; 0.0
15.0; 0 ; 0 ; 0 ; 0 ; 0; 0.004833984375; 0.0; 0.0; 0.0
15.1; 0 ; 0 ; 0 ; 0 ; 0; 0.0; 0.0; 0.0; 0.0
15.2; 0 ; 0 ; 0 ; 0 ; 0; 0.0; 0.0; 0.0; 0.0
15.3; 0 ; 0 ; 0 ; 0 ; 0; 0.008056640625; 0.0; 0.0; 0.0
15.4; 0 ; 0 ; 0 ; 0 ; 0; 0.01611328125; 0.011279296875; 0.0088623046875; 0.0
15.5; 0 ; 0 ; 0 ; 0 ; 0; 0.033837890625; 0.03544921875; 0.030615234375; 0.0378662109375
15.6; 0 ; 0 ; 0 ; 0 ; 0; 0.103125; 0.0958740234375; 0.1224609375; 0.078955078125
15.7; 0 ; 0 ; 0 ; 0 ; 0; 0.153076171875; 0.159521484375; 0.1740234375; 0.095068359375
15.8; 0 ; 0 ; 0 ; 0 ; 0; 0.211083984375; 0.218334960937; 0.23203125; 0.12890625
15.9; 0 ; 0 ; 0 ; 0 ; 0; 0.17724609375; 0.204638671875; 0.227197265625; 0.09990234375
16.0; 0 ; 0 ; 0 ; 0 ; 0; 0.17724609375; 0.20302734375; 0.23203125; 0.082177734375
16.1; 0 ; 0 ; 0 ; 0 ; 0; 0.0966796875; 0.120849609375; 0.117626953125; 0.02255859375
16.2; 0 ; 0 ; 0 ; 0 ; 0; 0.0; 0.0; 0.0; 0.0
16.3; 0 ; 0 ; 0 ; 0 ; 0; 0.0; 0.0; 0.0; 0.0
16.4; 0 ; 0 ; 0 ; 0 ; 0; 0.0; 0.0; 0.0; 0.0
16.5; 0 ; 0 ; 0 ; 0 ; 0; 0.0; 0.0; 0.0; 0.0
16.6; 0 ; 0 ; 0 ; 0 ; 0; 0.0; 0.0; 0.0; 0.0
16.7; 0 ; 0 ; 0 ; 0 ; 0; 0.0; 0.0; 0.0; 0.0
16.8; 0 ; 0 ; 0 ; 0 ; 0; 0.0; 0.0; 0.0; 0.0008056640625
16.9; 0 ; 0 ; 0 ; 0 ; 0; 0.0; 0.0; 0.0; 0.0
17.0; 0 ; 0 ; 0 ; 0 ; 0; 0.008056640625; 0.0; 0.0; 0.0
17.1; 0 ; 0 ; 0 ; 0 ; 0; 0.00966796875; 0.004833984375; 0.0024169921875; 0.0
17.2; 0 ; 0 ; 0 ; 0 ; 0; 0.027392578125; 0.0249755859375; 0.0185302734375; 0.0249755859375
17.3; 0 ; 0 ; 0 ; 0 ; 0; 0.088623046875; 0.101513671875; 0.120849609375; 0.082177734375
17.4; 0 ; 0 ; 0 ; 0 ; 0; 0.15146484375; 0.153076171875; 0.169189453125; 0.09345703125
17.5; 0 ; 0 ; 0 ; 0 ; 0; 0.20947265625; 0.21591796875; 0.23203125; 0.130517578125
17.6; 0 ; 0 ; 0 ; 0 ; 0; 0.20302734375; 0.231225585938; 0.233642578125; 0.103125
17.7; 0 ; 0 ; 0 ; 0 ; 0; 0.178857421875; 0.20625; 0.20625; 0.078955078125
17.8; 0 ; 0 ; 0 ; 0 ; 0; 0.11279296875; 0.115209960937; 0.117626953125; 0.02900390625
17.9; 0 ; 0 ; 0 ; 0 ; 0; 0.0; 0.0; 0.0; 0.0
18.0; 0 ; 0 ; 0 ; 0 ; 0; 0.0; 0.0; 0.0; 0.0
18.1; 0 ; 0 ; 0 ; 0 ; 0; 0.0; 0.0; 0.0; 0.0
18.2; 0 ; 0 ; 0 ; 0 ; 0; 0.0; 0.0; 0.0; 0.0
18.3; 0 ; 0 ; 0 ; 0 ; 0; 0.0; 0.0; 0.0; 0.0
18.4; 0 ; 0 ; 0 ; 0 ; 0; 0.0; 0.0; 0.0; 0.0
18.5; 0 ; 0 ; 0 ; 0 ; 0; 0.004833984375; 0.0; 0.0; 0.0
18.6; 0 ; 0 ; 0 ; 0 ; 0; 0.0; 0.0; 0.0; 0.001611328125
18.7; 0 ; 0 ; 0 ; 0 ; 0; 0.0; 0.0; 0.0; 0.0
18.8; 0 ; 0 ; 0 ; 0 ; 0; 0.011279296875; 0.0; 0.0; 0.0
18.9; 0 ; 0 ; 0 ; 0 ; 0; 0.02255859375; 0.017724609375; 0.0153076171875; 0.0
19.0; 0 ; 0 ; 0 ; 0 ; 0; 0.037060546875; 0.0443115234375; 0.0410888671875; 0.053173828125
19.1; 0 ; 0 ; 0 ; 0 ; 0; 0.11279296875; 0.108764648438; 0.118432617188; 0.085400390625
19.2; 0 ; 0 ; 0 ; 0 ; 0; 0.16435546875; 0.166772460938; 0.182080078125; 0.0990966796875
19.3; 0 ; 0 ; 0 ; 0 ; 0; 0.22236328125; 0.231225585938; 0.246533203125; 0.1224609375
19.4; 0 ; 0 ; 0 ; 0 ; 0; 0.17724609375; 0.20625; 0.202221679687; 0.098291015625
19.5; 0 ; 0 ; 0 ; 0 ; 0; 0.14501953125; 0.160327148438; 0.175634765625; 0.059619140625
19.6; 0 ; 0 ; 0 ; 0 ; 0; 0.08056640625; 0.101513671875; 0.117626953125; 0.0217529296875
19.7; 0 ; 0 ; 0 ; 0 ; 0; 0.0; 0.0; 0.0; 0.0
19.8; 0 ; 0 ; 0 ; 0 ; 0; 0.0; 0.0; 0.0; 0.0
19.9; 0 ; 0 ; 0 ; 0 ; 0; 0.0; 0.0; 0.0; 0.0
20.0; 0 ; 0 ; 0 ; 0 ; 0; 0.0; 0.0; 0.0; 0.0
20.1; 0 ; 0 ; 0 ; 0 ; 0; 0.0; 0.0; 0.0; 0.0
20.2; 0 ; 0 ; 0 ; 0 ; 0; 0.004833984375; 0.0; 0.0; 0.0
20.3; 0 ; 0 ; 0 ; 0 ; 0; 0.0; 0.0; 0.0; 0.0
20.4; 0 ; 0 ; 0 ; 0 ; 0; 0.0; 0.0; 0.0; 0.0
20.5; 0 ; 0 ; 0 ; 0 ; 0; 0.011279296875; 0.0; 0.0; 0.0
20.6; 0 ; 0 ; 0 ; 0 ; 0; 0.01611328125; 0.0120849609375; 0.012890625; 0.0
20.7; 0 ; 0 ; 0 ; 0 ; 0; 0.033837890625; 0.033837890625; 0.0281982421875; 0.037060546875
20.8; 0 ; 0 ; 0 ; 0 ; 0; 0.103125; 0.0958740234375; 0.124072265625; 0.078955078125
20.9; 0 ; 0 ; 0 ; 0 ; 0; 0.153076171875; 0.159521484375; 0.175634765625; 0.098291015625
21.0; 0 ; 0 ; 0 ; 0 ; 0; 0.20947265625; 0.218334960937; 0.233642578125; 0.127294921875
21.1; 0 ; 0 ; 0 ; 0 ; 0; 0.1869140625; 0.211083984375; 0.207861328125; 0.101513671875
21.2; 0 ; 0 ; 0 ; 0 ; 0; 0.178857421875; 0.20625; 0.194970703125; 0.0829833984375
21.3; 0 ; 0 ; 0 ; 0 ; 0; 0.103125; 0.107958984375; 0.111181640625; 0.02900390625
21.4; 0 ; 0 ; 0 ; 0 ; 0; 0.0; 0.0; 0.0; 0.0
21.5; 0 ; 0 ; 0 ; 0 ; 0; 0.0; 0.0; 0.0; 0.0
21.6; 0 ; 0 ; 0 ; 0 ; 0; 0.0; 0.0; 0.0; 0.0
21.7; 0 ; 0 ; 0 ; 0 ; 0; 0.0; 0.0; 0.0; 0.0
21.8; 0 ; 0 ; 0 ; 0 ; 0; 0.0; 0.0; 0.0; 0.0
21.9; 0 ; 0 ; 0 ; 0 ; 0; 0.001611328125; 0.0; 0.0; 0.0
22.0; 0 ; 0 ; 0 ; 0 ; 0; 0.049951171875; 0.0636474609375; 0.072509765625; 0.0024169921875
22.1; 0 ; 0 ; 0 ; 0 ; 0; 0.0; 0.0; 0.0; 0.0
22.2; 0 ; 0 ; 0 ; 0 ; 0; 0.0; 0.0; 0.0; 0.0
22.3; 0 ; 0 ; 0 ; 0 ; 0; 0.0; 0.0; 0.0; 0.0
22.4; 0 ; 0 ; 0 ; 0 ; 0; 0.0; 0.0; 0.0; 0.0
22.5; 0 ; 0 ; 0 ; 0 ; 0; 0.0; 0.0; 0.0; 0.0
22.6; 0 ; 0 ; 0 ; 0 ; 0; 0.0; 0.0; 0.0; 0.0
22.7; 0 ; 0 ; 0 ; 0 ; 0; 0.0064453125; 0.0; 0.0; 0.0
22.8; 0 ; 0 ; 0 ; 0 ; 0; 0.0; 0.0; 0.0; 0.0088623046875
22.9; 0 ; 0 ; 0 ; 0 ; 0; 0.0; 0.0; 0.0; 0.0
23.0; 0 ; 0 ; 0 ; 0 ; 0; 0.020947265625; 0.011279296875; 0.0024169921875; 0.0040283203125
23.1; 0 ; 0 ; 0 ; 0 ; 0; 0.05478515625; 0.056396484375; 0.066064453125; 0.0
23.2; 0 ; 0 ; 0 ; 0 ; 0; 0.062841796875; 0.088623046875; 0.0958740234375; 0.11923828125
23.3; 0 ; 0 ; 0 ; 0 ; 0; 0.14501953125; 0.146630859375; 0.156298828125; 0.0958740234375
23.4; 0 ; 0 ; 0 ; 0 ; 0; 0.20625; 0.211889648437; 0.2255859375; 0.12568359375
23.5; 0 ; 0 ; 0 ; 0 ; 0; 0.17080078125; 0.191748046875; 0.214306640625; 0.0894287109375
23.6; 0 ; 0 ; 0 ; 0 ; 0; 0.17080078125; 0.191748046875; 0.215112304688; 0.078955078125
23.7; 0 ; 0 ; 0 ; 0 ; 0; 0.103125; 0.107958984375; 0.1095703125; 0.0314208984375
23.8; 0 ; 0 ; 0 ; 0 ; 0; 0.0; 0.0; 0.0; 0.0
23.9; 0 ; 0 ; 0 ; 0 ; 0; 0.0; 0.0; 0.0; 0.0
24.0; 0 ; 0 ; 0 ; 0 ; 0; 0.0; 0.0; 0.0; 0.0
24.1; 0 ; 0 ; 0 ; 0 ; 0; 0.0; 0.0; 0.0; 0.0
24.2; 0 ; 0 ; 0 ; 0 ; 0; 0.0; 0.0; 0.0; 0.0
24.3; 0 ; 0 ; 0 ; 0 ; 0; 0.008056640625; 0.0; 0.0; 0.0
24.4; 0 ; 0 ; 0 ; 0 ; 0; 0.0; 0.0; 0.0; 0.0040283203125
24.5; 0 ; 0 ; 0 ; 0 ; 0; 0.0; 0.0; 0.0; 0.0
24.6; 0 ; 0 ; 0 ; 0 ; 0; 0.008056640625; 0.0; 0.0; 0.0
24.7; 0 ; 0 ; 0 ; 0 ; 0; 0.00322265625; 0.0; 0.0; 0.0
24.8; 0 ; 0 ; 0 ; 0 ; 0; 0.024169921875; 0.0185302734375; 0.0120849609375; 0.01611328125
24.9; 0 ; 0 ; 0 ; 0 ; 0; 0.075732421875; 0.082177734375; 0.0966796875; 0.0668701171875
25.0; 0 ; 0 ; 0 ; 0 ; 0; 0.1353515625; 0.133740234375; 0.141796875; 0.0894287109375
25.1; 0 ; 0 ; 0 ; 0 ; 0; 0.17724609375; 0.191748046875; 0.219140625; 0.1224609375
25.2; 0 ; 0 ; 0 ; 0 ; 0; 0.18369140625; 0.211083984375; 0.207861328125; 0.088623046875
25.3; 0 ; 0 ; 0 ; 0 ; 0; 0.1740234375; 0.192553710938; 0.219140625; 0.08056640625
25.4; 0 ; 0 ; 0 ; 0 ; 0; 0.11279296875; 0.115209960937; 0.124072265625; 0.0378662109375
25.5; 0 ; 0 ; 0 ; 0 ; 0; 0.03544921875; 0.046728515625; 0.053173828125; 0.0
25.6; 0 ; 0 ; 0 ; 0 ; 0; 0.0; 0.0; 0.0; 0.0
25.7; 0 ; 0 ; 0 ; 0 ; 0; 0.0; 0.0; 0.0; 0.0
25.8; 0 ; 0 ; 0 ; 0 ; 0; 0.0; 0.0; 0.0; 0.0
25.9; 0 ; 0 ; 0 ; 0 ; 0; 0.0; 0.0; 0.0; 0.0
26.0; 0 ; 0 ; 0 ; 0 ; 0; 0.0; 0.0; 0.0; 0.0
26.1; 0 ; 0 ; 0 ; 0 ; 0; 0.0; 0.0; 0.0; 0.0024169921875
26.2; 0 ; 0 ; 0 ; 0 ; 0; 0.0; 0.0; 0.0; 0.0
26.3; 0 ; 0 ; 0 ; 0 ; 0; 0.008056640625; 0.0; 0.0; 0.0
26.4; 0 ; 0 ; 0 ; 0 ; 0; 0.0; 0.0; 0.0; 0.0
26.5; 0 ; 0 ; 0 ; 0 ; 0; 0.020947265625; 0.011279296875; 0.0024169921875; 0.0056396484375
26.6; 0 ; 0 ; 0 ; 0 ; 0; 0.06767578125; 0.072509765625; 0.085400390625; 0.0
26.7; 0 ; 0 ; 0 ; 0 ; 0; 0.069287109375; 0.101513671875; 0.111987304688; 0.115209960937
26.8; 0 ; 0 ; 0 ; 0 ; 0; 0.15146484375; 0.15791015625; 0.169189453125; 0.098291015625
26.9; 0 ; 0 ; 0 ; 0 ; 0; 0.211083984375; 0.223974609375; 0.240087890625; 0.116821289063
27.0; 0 ; 0 ; 0 ; 0 ; 0; 0.1740234375; 0.198193359375; 0.215112304688; 0.0966796875
27.1; 0 ; 0 ; 0 ; 0 ; 0; 0.15146484375; 0.165966796875; 0.182080078125; 0.059619140625
27.2; 0 ; 0 ; 0 ; 0 ; 0; 0.0837890625; 0.107958984375; 0.0990966796875; 0.024169921875
27.3; 0 ; 0 ; 0 ; 0 ; 0; 0.0; 0.0; 0.0; 0.0
27.4; 0 ; 0 ; 0 ; 0 ; 0; 0.0; 0.0; 0.0; 0.0
27.5; 0 ; 0 ; 0 ; 0 ; 0; 0.0; 0.0; 0.0; 0.0
27.6; 0 ; 0 ; 0 ; 0 ; 0; 0.0; 0.0; 0.0; 0.0
27.7; 0 ; 0 ; 0 ; 0 ; 0; 0.0; 0.0; 0.0; 0.0
27.8; 0 ; 0 ; 0 ; 0 ; 0; 0.011279296875; 0.0; 0.0; 0.0
27.9; 0 ; 0 ; 0 ; 0 ; 0; 0.0; 0.0; 0.0; 0.001611328125
28.0; 0 ; 0 ; 0 ; 0 ; 0; 0.0; 0.0; 0.0; 0.0
28.1; 0 ; 0 ; 0 ; 0 ; 0; 0.011279296875; 0.001611328125; 0.0; 0.0
28.2; 0 ; 0 ; 0 ; 0 ; 0; 0.00966796875; 0.004833984375; 0.001611328125; 0.0
28.3; 0 ; 0 ; 0 ; 0 ; 0; 0.030615234375; 0.0249755859375; 0.020947265625; 0.0249755859375
28.4; 0 ; 0 ; 0 ; 0 ; 0; 0.088623046875; 0.101513671875; 0.1224609375; 0.072509765625
28.5; 0 ; 0 ; 0 ; 0 ; 0; 0.14501953125; 0.146630859375; 0.1611328125; 0.0926513671875
28.6; 0 ; 0 ; 0 ; 0 ; 0; 0.20947265625; 0.217529296875; 0.227197265625; 0.12568359375
28.7; 0 ; 0 ; 0 ; 0 ; 0; 0.191748046875; 0.21591796875; 0.207861328125; 0.0894287109375
28.8; 0 ; 0 ; 0 ; 0 ; 0; 0.17724609375; 0.198193359375; 0.2255859375; 0.08056640625
28.9; 0 ; 0 ; 0 ; 0 ; 0; 0.103125; 0.107958984375; 0.111181640625; 0.0330322265625
29.0; 0 ; 0 ; 0 ; 0 ; 0; 0.0; 0.0; 0.0; 0.0
29.1; 0 ; 0 ; 0 ; 0 ; 0; 0.0; 0.0; 0.0; 0.0
29.2; 0 ; 0 ; 0 ; 0 ; 0; 0.0; 0.0; 0.0; 0.0
29.3; 0 ; 0 ; 0 ; 0 ; 0; 0.0; 0.0; 0.0; 0.0
29.4; 0 ; 0 ; 0 ; 0 ; 0; 0.0; 0.0; 0.0; 0.0
29.5; 0 ; 0 ; 0 ; 0 ; 0; 0.0; 0.0; 0.0; 0.0
29.6; 0 ; 0 ; 0 ; 0 ; 0; 0.008056640625; 0.0; 0.0; 0.0
29.7; 0 ; 0 ; 0 ; 0 ; 0; 0.0; 0.0; 0.0; 0.0
29.8; 0 ; 0 ; 0 ; 0 ; 0; 0.008056640625; 0.0; 0.0; 0.0
29.9; 0 ; 0 ; 0 ; 0 ; 0; 0.00322265625; 0.0; 0.0; 0.0
30.0; 0 ; 0 ; 0 ; 0 ; 0; 0.024169921875; 0.024169921875; 0.0153076171875; 0.020947265625
30.1; 0 ; 0 ; 0 ; 0 ; 0; 0.075732421875; 0.08701171875; 0.103125; 0.0708984375
30.2; 0 ; 0 ; 0 ; 0 ; 0; 0.140185546875; 0.140991210938; 0.149853515625; 0.0926513671875
30.3; 0 ; 0 ; 0 ; 0 ; 0; 0.17724609375; 0.198193359375; 0.2255859375; 0.124072265625
30.4; 0 ; 0 ; 0 ; 0 ; 0; 0.19013671875; 0.218334960937; 0.220751953125; 0.0958740234375
30.5; 0 ; 0 ; 0 ; 0 ; 0; 0.178857421875; 0.204638671875; 0.23203125; 0.088623046875
30.6; 0 ; 0 ; 0 ; 0 ; 0; 0.140185546875; 0.159521484375; 0.175634765625; 0.0539794921875
30.7; 0 ; 0 ; 0 ; 0 ; 0; 0.03544921875; 0.043505859375; 0.049951171875; 0.0
30.8; 0 ; 0 ; 0 ; 0 ; 0; 0.0; 0.0; 0.0; 0.0
30.9; 0 ; 0 ; 0 ; 0 ; 0; 0.0; 0.0; 0.0; 0.0
31.0; 0 ; 0 ; 0 ; 0 ; 0; 0.0; 0.0; 0.0; 0.0
31.1; 0 ; 0 ; 0 ; 0 ; 0; 0.0; 0.0; 0.0; 0.0
31.2; 0 ; 0 ; 0 ; 0 ; 0; 0.0; 0.0; 0.0; 0.0
31.3; 0 ; 0 ; 0 ; 0 ; 0; 0.008056640625; 0.0; 0.0; 0.0
31.4; 0 ; 0 ; 0 ; 0 ; 0; 0.0; 0.0; 0.0; 0.0
31.5; 0 ; 0 ; 0 ; 0 ; 0; 0.008056640625; 0.0; 0.0; 0.0
31.6; 0 ; 0 ; 0 ; 0 ; 0; 0.0; 0.0; 0.0; 0.0
31.7; 0 ; 0 ; 0 ; 0 ; 0; 0.024169921875; 0.017724609375; 0.0088623046875; 0.011279296875
31.8; 0 ; 0 ; 0 ; 0 ; 0; 0.069287109375; 0.075732421875; 0.091845703125; 0.0700927734375
31.9; 0 ; 0 ; 0 ; 0 ; 0; 0.13212890625; 0.128100585938; 0.143408203125; 0.0894287109375
32.0; 0 ; 0 ; 0 ; 0 ; 0; 0.178857421875; 0.188525390625; 0.207861328125; 0.118432617188
32.1; 0 ; 0 ; 0 ; 0 ; 0; 0.20947265625; 0.211889648437; 0.220751953125; 0.098291015625
32.2; 0 ; 0 ; 0 ; 0 ; 0; 0.185302734375; 0.211083984375; 0.201416015625; 0.0966796875
32.3; 0 ; 0 ; 0 ; 0 ; 0; 0.15146484375; 0.165966796875; 0.182080078125; 0.0580078125
32.4; 0 ; 0 ; 0 ; 0 ; 0; 0.0451171875; 0.062841796875; 0.0668701171875; 0.0
32.5; 0 ; 0 ; 0 ; 0 ; 0; 0.0; 0.0; 0.0; 0.0
32.6; 0 ; 0 ; 0 ; 0 ; 0; 0.0; 0.0; 0.0; 0.0
32.7; 0 ; 0 ; 0 ; 0 ; 0; 0.0; 0.0; 0.0; 0.0
32.8; 0 ; 0 ; 0 ; 0 ; 0; 0.0; 0.0; 0.0; 0.0
32.9; 0 ; 0 ; 0 ; 0 ; 0; 0.0; 0.0; 0.0; 0.0
33.0; 0 ; 0 ; 0 ; 0 ; 0; 0.004833984375; 0.0; 0.0; 0.0
33.1; 0 ; 0 ; 0 ; 0 ; 0; 0.0; 0.0; 0.0; 0.0
33.2; 0 ; 0 ; 0 ; 0 ; 0; 0.0; 0.0; 0.0; 0.0
33.3; 0 ; 0 ; 0 ; 0 ; 0; 0.008056640625; 0.0; 0.0; 0.0
33.4; 0 ; 0 ; 0 ; 0 ; 0; 0.01611328125; 0.011279296875; 0.0088623046875; 0.0
33.5; 0 ; 0 ; 0 ; 0 ; 0; 0.033837890625; 0.03544921875; 0.030615234375; 0.0378662109375
33.6; 0 ; 0 ; 0 ; 0 ; 0; 0.103125; 0.0958740234375; 0.1224609375; 0.078955078125
33.7; 0 ; 0 ; 0 ; 0 ; 0; 0.153076171875; 0.159521484375; 0.1740234375; 0.095068359375
33.8; 0 ; 0 ; 0 ; 0 ; 0; 0.211083984375; 0.218334960937; 0.23203125; 0.12890625
33.9; 0 ; 0 ; 0 ; 0 ; 0; 0.17724609375; 0.204638671875; 0.227197265625; 0.09990234375
34.0; 0 ; 0 ; 0 ; 0 ; 0; 0.17724609375; 0.20302734375; 0.23203125; 0.082177734375
34.1; 0 ; 0 ; 0 ; 0 ; 0; 0.0966796875; 0.120849609375; 0.117626953125; 0.02255859375
34.2; 0 ; 0 ; 0 ; 0 ; 0; 0.0; 0.0; 0.0; 0.0
34.3; 0 ; 0 ; 0 ; 0 ; 0; 0.0; 0.0; 0.0; 0.0
34.4; 0 ; 0 ; 0 ; 0 ; 0; 0.0; 0.0; 0.0; 0.0
34.5; 0 ; 0 ; 0 ; 0 ; 0; 0.0; 0.0; 0.0; 0.0
34.6; 0 ; 0 ; 0 ; 0 ; 0; 0.0; 0.0; 0.0; 0.0
34.7; 0 ; 0 ; 0 ; 0 ; 0; 0.0; 0.0; 0.0; 0.0
34.8; 0 ; 0 ; 0 ; 0 ; 0; 0.0; 0.0; 0.0; 0.0008056640625
34.9; 0 ; 0 ; 0 ; 0 ; 0; 0.0; 0.0; 0.0; 0.0
35.0; 0 ; 0 ; 0 ; 0 ; 0; 0.008056640625; 0.0; 0.0; 0.0
35.1; 0 ; 0 ; 0 ; 0 ; 0; 0.00966796875; 0.004833984375; 0.0024169921875; 0.0
35.2; 0 ; 0 ; 0 ; 0 ; 0; 0.027392578125; 0.0249755859375; 0.0185302734375; 0.0249755859375
35.3; 0 ; 0 ; 0 ; 0 ; 0; 0.088623046875; 0.101513671875; 0.120849609375; 0.082177734375
35.4; 0 ; 0 ; 0 ; 0 ; 0; 0.15146484375; 0.153076171875; 0.169189453125; 0.09345703125
35.5; 0 ; 0 ; 0 ; 0 ; 0; 0.20947265625; 0.21591796875; 0.23203125; 0.130517578125
35.6; 0 ; 0 ; 0 ; 0 ; 0; 0.20302734375; 0.231225585938; 0.233642578125; 0.103125
35.7; 0 ; 0 ; 0 ; 0 ; 0; 0.178857421875; 0.20625; 0.20625; 0.078955078125
35.8; 0 ; 0 ; 0 ; 0 ; 0; 0.11279296875; 0.115209960937; 0.117626953125; 0.02900390625
35.9; 0 ; 0 ; 0 ; 0 ; 0; 0.0; 0.0; 0.0; 0.0
36.0; 0 ; 0 ; 0 ; 0 ; 0; 0.0; 0.0; 0.0; 0.0
36.1; 0 ; 0 ; 0 ; 0 ; 0; 0.0; 0.0; 0.0; 0.0
36.2; 0 ; 0 ; 0 ; 0 ; 0; 0.0; 0.0; 0.0; 0.0
36.3; 0 ; 0 ; 0 ; 0 ; 0; 0.0; 0.0; 0.0; 0.0
36.4; 0 ; 0 ; 0 ; 0 ; 0; 0.0; 0.0; 0.0; 0.0
36.5; 0 ; 0 ; 0 ; 0 ; 0; 0.004833984375; 0.0; 0.0; 0.0
36.6; 0 ; 0 ; 0 ; 0 ; 0; 0.0; 0.0; 0.0; 0.001611328125
36.7; 0 ; 0 ; 0 ; 0 ; 0; 0.0; 0.0; 0.0; 0.0
36.8; 0 ; 0 ; 0 ; 0 ; 0; 0.011279296875; 0.0; 0.0; 0.0
36.9; 0 ; 0 ; 0 ; 0 ; 0; 0.02255859375; 0.017724609375; 0.0153076171875; 0.0
37.0; 0 ; 0 ; 0 ; 0 ; 0; 0.037060546875; 0.0443115234375; 0.0410888671875; 0.053173828125
37.1; 0 ; 0 ; 0 ; 0 ; 0; 0.11279296875; 0.108764648438; 0.118432617188; 0.085400390625
37.2; 0 ; 0 ; 0 ; 0 ; 0; 0.16435546875; 0.166772460938; 0.182080078125; 0.0990966796875
37.3;100 ; 0 ; 0 ; 0 ; 0; 0.22236328125; 0.231225585938; 0.246533203125; 0.1224609375
37.4; 0 ; 0 ; 0 ; 0 ; 0; 0.17724609375; 0.20625; 0.202221679687; 0.098291015625
37.5; 0 ; 0 ; 0 ; 0 ; 0; 0.14501953125; 0.160327148438; 0.175634765625; 0.059619140625
37.6; 0 ; 0 ; 0 ; 0 ; 0; 0.08056640625; 0.101513671875; 0.117626953125; 0.0217529296875
37.7; 0 ; 0 ; 0 ; 0 ; 0; 0.0; 0.0; 0.0; 0.0
37.8; 0 ; 0 ; 0 ; 0 ; 0; 0.0; 0.0; 0.0; 0.0
37.9; 0 ; 0 ; 100 ; 0 ; 0; 0.0; 0.0; 0.0; 0.0
38.0; 0 ; 0 ; 0 ; 0 ; 0; 0.0; 0.0; 0.0; 0.0
38.1; 0 ; 0 ; 0 ; 100 ; 0; 0.0; 0.0; 0.0; 0.0
38.2; 0 ; 0 ; 100 ; 100 ; 0; 0.004833984375; 0.0; 0.0; 0.0
38.3; 0 ; 0 ; 0 ; 100 ; 0; 0.0; 0.0; 0.0; 0.0
38.4; 0 ; 0 ; 0 ; 0 ; 0; 0.0; 0.0; 0.0; 0.0
38.5; 0 ; 100 ; 0 ; 0 ; 0; 0.011279296875; 0.0; 0.0; 0.0
38.6; 0 ; 100 ; 100 ; 0 ; 0; 0.01611328125; 0.0120849609375; 0.012890625; 0.0
38.7;100 ; 100 ; 100 ; 0 ; 0; 0.033837890625; 0.033837890625; 0.0281982421875; 0.037060546875
38.8;100 ; 0 ; 100 ; 0 ; 0; 0.103125; 0.0958740234375; 0.124072265625; 0.078955078125
38.9;100 ; 0 ; 100 ; 100 ; 0; 0.153076171875; 0.159521484375; 0.175634765625; 0.098291015625
39.0;100 ; 0 ; 100 ; 0 ; 0; 0.20947265625; 0.218334960937; 0.233642578125; 0.127294921875
39.1;100 ; 100 ; 100 ; 0 ; 0; 0.1869140625; 0.211083984375; 0.207861328125; 0.101513671875
39.2;100 ; 100 ; 0 ; 0 ; 0; 0.178857421875; 0.20625; 0.194970703125; 0.0829833984375
39.3; 0 ; 100 ; 0 ; 0 ; 0; 0.103125; 0.107958984375; 0.111181640625; 0.02900390625
39.4; 0 ; 0 ; 0 ; 0 ; 0; 0.0; 0.0; 0.0; 0.0
39.5; 0 ; 0 ; 100 ; 0 ; 0; 0.0; 0.0; 0.0; 0.0
39.6; 0 ; 0 ; 0 ; 0 ; 0; 0.0; 0.0; 0.0; 0.0
39.7; 0 ; 100 ; 0 ; 0 ; 0; 0.0; 0.0; 0.0; 0.0
39.8;100 ; 100 ; 0 ; 0 ; 0; 0.0; 0.0; 0.0; 0.0
39.9;100 ; 0 ; 0 ; 0 ; 0; 0.001611328125; 0.0; 0.0; 0.0
40.0;100 ; 0 ; 0 ; 100 ; 0; 0.049951171875; 0.0636474609375; 0.072509765625; 0.0024169921875
40.1; 0 ; 0 ; 0 ; 100 ; 0; 0.0; 0.0; 0.0; 0.0
40.2; 0 ; 0 ; 100 ; 100 ; 0; 0.0; 0.0; 0.0; 0.0
40.3;100 ; 0 ; 100 ; 100 ; 0; 0.0; 0.0; 0.0; 0.0
40.4;100 ; 0 ; 0 ; 100 ; 0; 0.0; 0.0; 0.0; 0.0
40.5;100 ; 0 ; 0 ; 0 ; 0; 0.0; 0.0; 0.0; 0.0
40.6;100 ; 100 ; 0 ; 0 ; 0; 0.0; 0.0; 0.0; 0.0
40.7; 0 ; 100 ; 0 ; 0 ; 0; 0.0064453125; 0.0; 0.0; 0.0
40.8; 0 ; 0 ; 0 ; 0 ; 0; 0.0; 0.0; 0.0; 0.0088623046875
40.9; 0 ; 0 ; 100 ; 0 ; 0; 0.0; 0.0; 0.0; 0.0
41.0;100 ; 0 ; 100 ; 0 ; 0; 0.020947265625; 0.011279296875; 0.0024169921875; 0.0040283203125
41.1;100 ; 0 ; 100 ; 100 ; 0; 0.05478515625; 0.056396484375; 0.066064453125; 0.0
41.2;100 ; 0 ; 100 ; 0 ; 0; 0.062841796875; 0.088623046875; 0.0958740234375; 0.11923828125
41.3;100 ; 100 ; 100 ; 0 ; 0; 0.14501953125; 0.146630859375; 0.156298828125; 0.0958740234375
41.4;100 ; 100 ; 0 ; 0 ; 0; 0.20625; 0.211889648437; 0.2255859375; 0.12568359375
41.5;100 ; 0 ; 0 ; 0 ; 0; 0.17080078125; 0.191748046875; 0.214306640625; 0.0894287109375
41.6; 0 ; 0 ; 0 ; 0 ; 0; 0.17080078125; 0.191748046875; 0.215112304688; 0.078955078125
41.7; 0 ; 0 ; 0 ; 0 ; 0; 0.103125; 0.107958984375; 0.1095703125; 0.0314208984375
41.8; 0 ; 0 ; 0 ; 0 ; 0; 0.0; 0.0; 0.0; 0.0
41.9; 0 ; 0 ; 0 ; 0 ; 0; 0.0; 0.0; 0.0; 0.0
42.0; 0 ; 0 ; 0 ; 0 ; 0; 0.0; 0.0; 0.0; 0.0
42.1; 0 ; 0 ; 0 ; 0 ; 0; 0.0; 0.0; 0.0; 0.0
42.2; 0 ; 0 ; 0 ; 0 ; 0; 0.0; 0.0; 0.0; 0.0
42.3; 0 ; 0 ; 0 ; 0 ; 0; 0.008056640625; 0.0; 0.0; 0.0
42.4; 0 ; 0 ; 0 ; 0 ; 0; 0.0; 0.0; 0.0; 0.0040283203125
42.5; 0 ; 0 ; 0 ; 0 ; 0; 0.0; 0.0; 0.0; 0.0
42.6; 0 ; 0 ; 0 ; 0 ; 0; 0.008056640625; 0.0; 0.0; 0.0
42.7; 0 ; 0 ; 0 ; 0 ; 0; 0.00322265625; 0.0; 0.0; 0.0
42.8; 0 ; 0 ; 0 ; 0 ; 0; 0.024169921875; 0.0185302734375; 0.0120849609375; 0.01611328125
42.9; 0 ; 0 ; 0 ; 0 ; 0; 0.075732421875; 0.082177734375; 0.0966796875; 0.0668701171875
43.0; 0 ; 0 ; 0 ; 0 ; 0; 0.1353515625; 0.133740234375; 0.141796875; 0.0894287109375
43.1; 0 ; 0 ; 0 ; 0 ; 0; 0.17724609375; 0.191748046875; 0.219140625; 0.1224609375
43.2; 0 ; 0 ; 0 ; 0 ; 0; 0.18369140625; 0.211083984375; 0.207861328125; 0.088623046875
43.3; 0 ; 0 ; 0 ; 0 ; 0; 0.1740234375; 0.192553710938; 0.219140625; 0.08056640625
43.4; 0 ; 0 ; 0 ; 0 ; 0; 0.11279296875; 0.115209960937; 0.124072265625; 0.0378662109375
43.5; 0 ; 0 ; 0 ; 0 ; 0; 0.03544921875; 0.046728515625; 0.053173828125; 0.0
43.6; 0 ; 0 ; 0 ; 0 ; 0; 0.0; 0.0; 0.0; 0.0
43.7; 0 ; 0 ; 0 ; 0 ; 0; 0.0; 0.0; 0.0; 0.0
43.8; 0 ; 0 ; 0 ; 0 ; 0; 0.0; 0.0; 0.0; 0.0
43.9; 0 ; 0 ; 0 ; 0 ; 0; 0.0; 0.0; 0.0; 0.0
44.0; 0 ; 0 ; 0 ; 0 ; 0; 0.0; 0.0; 0.0; 0.0
44.1; 0 ; 0 ; 0 ; 0 ; 0; 0.0; 0.0; 0.0; 0.0024169921875
44.2; 0 ; 0 ; 0 ; 0 ; 0; 0.0; 0.0; 0.0; 0.0
44.3; 0 ; 0 ; 0 ; 0 ; 0; 0.008056640625; 0.0; 0.0; 0.0
44.4; 0 ; 0 ; 0 ; 0 ; 0; 0.0; 0.0; 0.0; 0.0
44.5; 0 ; 0 ; 0 ; 0 ; 0; 0.020947265625; 0.011279296875; 0.0024169921875; 0.0056396484375
44.6; 0 ; 0 ; 0 ; 0 ; 0; 0.06767578125; 0.072509765625; 0.085400390625; 0.0
44.7; 0 ; 0 ; 0 ; 0 ; 0; 0.069287109375; 0.101513671875; 0.111987304688; 0.115209960937
44.8; 0 ; 0 ; 0 ; 0 ; 0; 0.15146484375; 0.15791015625; 0.169189453125; 0.098291015625
44.9; 0 ; 0 ; 0 ; 0 ; 0; 0.211083984375; 0.223974609375; 0.240087890625; 0.116821289063
45.0; 0 ; 0 ; 0 ; 0 ; 0; 0.1740234375; 0.198193359375; 0.215112304688; 0.0966796875
45.1; 0 ; 0 ; 0 ; 0 ; 0; 0.15146484375; 0.165966796875; 0.182080078125; 0.059619140625
45.2; 0 ; 0 ; 0 ; 0 ; 0; 0.0837890625; 0.107958984375; 0.0990966796875; 0.024169921875
45.3; 0 ; 0 ; 0 ; 0 ; 0; 0.0; 0.0; 0.0; 0.0
45.4; 0 ; 0 ; 0 ; 0 ; 0; 0.0; 0.0; 0.0; 0.0
45.5; 0 ; 0 ; 0 ; 0 ; 0; 0.0; 0.0; 0.0; 0.0
45.6; 0 ; 0 ; 0 ; 0 ; 0; 0.0; 0.0; 0.0; 0.0
45.7; 0 ; 0 ; 0 ; 0 ; 0; 0.0; 0.0; 0.0; 0.0
45.8; 0 ; 0 ; 0 ; 0 ; 0; 0.011279296875; 0.0; 0.0; 0.0
45.9; 0 ; 0 ; 0 ; 0 ; 0; 0.0; 0.0; 0.0; 0.001611328125
46.0; 0 ; 0 ; 0 ; 0 ; 0; 0.0; 0.0; 0.0; 0.0
46.1; 0 ; 0 ; 0 ; 0 ; 0; 0.011279296875; 0.001611328125; 0.0; 0.0
46.2; 0 ; 0 ; 0 ; 0 ; 0; 0.00966796875; 0.004833984375; 0.001611328125; 0.0
46.3; 0 ; 0 ; 0 ; 0 ; 0; 0.030615234375; 0.0249755859375; 0.020947265625; 0.0249755859375
46.4; 0 ; 0 ; 0 ; 0 ; 0; 0.088623046875; 0.101513671875; 0.1224609375; 0.072509765625
46.5; 0 ; 0 ; 0 ; 0 ; 0; 0.14501953125; 0.146630859375; 0.1611328125; 0.0926513671875
46.6; 0 ; 0 ; 0 ; 0 ; 0; 0.20947265625; 0.217529296875; 0.227197265625; 0.12568359375
46.7; 0 ; 0 ; 0 ; 0 ; 0; 0.191748046875; 0.21591796875; 0.207861328125; 0.0894287109375
46.8; 0 ; 0 ; 0 ; 0 ; 0; 0.17724609375; 0.198193359375; 0.2255859375; 0.08056640625
46.9; 0 ; 0 ; 0 ; 0 ; 0; 0.103125; 0.107958984375; 0.111181640625; 0.0330322265625
47.0; 0 ; 0 ; 0 ; 0 ; 0; 0.0; 0.0; 0.0; 0.0
47.1; 0 ; 0 ; 0 ; 0 ; 0; 0.0; 0.0; 0.0; 0.0
47.2; 0 ; 0 ; 0 ; 0 ; 0; 0.0; 0.0; 0.0; 0.0
47.3; 0 ; 0 ; 0 ; 0 ; 0; 0.0; 0.0; 0.0; 0.0
47.4; 0 ; 0 ; 0 ; 0 ; 0; 0.0; 0.0; 0.0; 0.0
47.5; 0 ; 0 ; 0 ; 0 ; 0; 0.0; 0.0; 0.0; 0.0
47.6; 0 ; 0 ; 0 ; 0 ; 0; 0.008056640625; 0.0; 0.0; 0.0
47.7; 0 ; 0 ; 0 ; 0 ; 0; 0.0; 0.0; 0.0; 0.0
47.8; 0 ; 0 ; 0 ; 0 ; 0; 0.008056640625; 0.0; 0.0; 0.0
47.9; 0 ; 0 ; 0 ; 0 ; 0; 0.00322265625; 0.0; 0.0; 0.0
48.0; 0 ; 0 ; 0 ; 0 ; 0; 0.024169921875; 0.024169921875; 0.0153076171875; 0.020947265625
48.1; 0 ; 0 ; 0 ; 0 ; 0; 0.075732421875; 0.08701171875; 0.103125; 0.0708984375
48.2; 0 ; 0 ; 0 ; 0 ; 0; 0.140185546875; 0.140991210938; 0.149853515625; 0.0926513671875
48.3; 0 ; 0 ; 0 ; 0 ; 0; 0.17724609375; 0.198193359375; 0.2255859375; 0.124072265625
48.4; 0 ; 0 ; 0 ; 0 ; 0; 0.19013671875; 0.218334960937; 0.220751953125; 0.0958740234375
48.5; 0 ; 0 ; 0 ; 0 ; 0; 0.178857421875; 0.204638671875; 0.23203125; 0.088623046875
48.6; 0 ; 0 ; 0 ; 0 ; 0; 0.140185546875; 0.159521484375; 0.175634765625; 0.0539794921875
48.7; 0 ; 0 ; 0 ; 0 ; 0; 0.03544921875; 0.043505859375; 0.049951171875; 0.0
48.8; 0 ; 0 ; 0 ; 0 ; 0; 0.0; 0.0; 0.0; 0.0
48.9; 0 ; 0 ; 0 ; 0 ; 0; 0.0; 0.0; 0.0; 0.0
49.0; 0 ; 0 ; 0 ; 0 ; 0; 0.0; 0.0; 0.0; 0.0
49.1; 0 ; 0 ; 0 ; 0 ; 0; 0.0; 0.0; 0.0; 0.0
49.2; 0 ; 0 ; 0 ; 0 ; 0; 0.0; 0.0; 0.0; 0.0
49.3; 0 ; 0 ; 0 ; 0 ; 0; 0.008056640625; 0.0; 0.0; 0.0
49.4; 0 ; 0 ; 0 ; 0 ; 0; 0.0; 0.0; 0.0; 0.0
49.5; 0 ; 0 ; 0 ; 0 ; 0; 0.008056640625; 0.0; 0.0; 0.0
49.6; 0 ; 0 ; 0 ; 0 ; 0; 0.0; 0.0; 0.0; 0.0
49.7; 0 ; 0 ; 0 ; 0 ; 0; 0.024169921875; 0.017724609375; 0.0088623046875; 0.011279296875
49.8; 0 ; 0 ; 0 ; 0 ; 0; 0.069287109375; 0.075732421875; 0.091845703125; 0.0700927734375
49.9; 0 ; 0 ; 0 ; 0 ; 0; 0.13212890625; 0.128100585938; 0.143408203125; 0.0894287109375
50.0; 0 ; 0 ; 0 ; 0 ; 0; 0.178857421875; 0.188525390625; 0.207861328125; 0.118432617188
50.1; 0 ; 0 ; 0 ; 0 ; 0; 0.20947265625; 0.211889648437; 0.220751953125; 0.098291015625
50.2; 0 ; 0 ; 0 ; 0 ; 0; 0.185302734375; 0.211083984375; 0.201416015625; 0.0966796875
50.3; 0 ; 0 ; 0 ; 0 ; 0; 0.15146484375; 0.165966796875; 0.182080078125; 0.0580078125
50.4; 0 ; 0 ; 0 ; 0 ; 0; 0.0451171875; 0.062841796875; 0.0668701171875; 0.0
50.5; 0 ; 0 ; 0 ; 0 ; 0; 0.0; 0.0; 0.0; 0.0
50.6; 0 ; 0 ; 0 ; 0 ; 0; 0.0; 0.0; 0.0; 0.0
50.7; 0 ; 0 ; 0 ; 0 ; 0; 0.0; 0.0; 0.0; 0.0
50.8; 0 ; 0 ; 0 ; 0 ; 0; 0.0; 0.0; 0.0; 0.0
50.9; 0 ; 0 ; 0 ; 0 ; 0; 0.0; 0.0; 0.0; 0.0
51.0; 0 ; 0 ; 0 ; 0 ; 0; 0.004833984375; 0.0; 0.0; 0.0
51.1; 0 ; 0 ; 0 ; 0 ; 0; 0.0; 0.0; 0.0; 0.0
51.2; 0 ; 0 ; 0 ; 0 ; 0; 0.0; 0.0; 0.0; 0.0
51.3; 0 ; 0 ; 0 ; 0 ; 0; 0.008056640625; 0.0; 0.0; 0.0
51.4; 0 ; 0 ; 0 ; 0 ; 0; 0.01611328125; 0.011279296875; 0.0088623046875; 0.0
51.5; 0 ; 0 ; 0 ; 0 ; 0; 0.033837890625; 0.03544921875; 0.030615234375; 0.0378662109375
51.6; 0 ; 0 ; 0 ; 0 ; 0; 0.103125; 0.0958740234375; 0.1224609375; 0.078955078125
51.7; 0 ; 0 ; 0 ; 0 ; 0; 0.153076171875; 0.159521484375; 0.1740234375; 0.095068359375
51.8; 0 ; 0 ; 0 ; 0 ; 0; 0.211083984375; 0.218334960937; 0.23203125; 0.12890625
51.9; 0 ; 0 ; 0 ; 0 ; 0; 0.17724609375; 0.204638671875; 0.227197265625; 0.09990234375
52.0; 0 ; 0 ; 0 ; 0 ; 0; 0.17724609375; 0.20302734375; 0.23203125; 0.082177734375
52.1; 0 ; 0 ; 0 ; 0 ; 0; 0.0966796875; 0.120849609375; 0.117626953125; 0.02255859375
52.2; 0 ; 0 ; 0 ; 0 ; 0; 0.0; 0.0; 0.0; 0.0
52.3; 0 ; 0 ; 0 ; 0 ; 0; 0.0; 0.0; 0.0; 0.0
52.4; 0 ; 0 ; 0 ; 0 ; 0; 0.0; 0.0; 0.0; 0.0
52.5; 0 ; 0 ; 0 ; 0 ; 0; 0.0; 0.0; 0.0; 0.0
52.6; 0 ; 0 ; 0 ; 0 ; 0; 0.0; 0.0; 0.0; 0.0
52.7; 0 ; 0 ; 0 ; 0 ; 0; 0.0; 0.0; 0.0; 0.0
52.8; 0 ; 0 ; 0 ; 0 ; 0; 0.0; 0.0; 0.0; 0.0008056640625
52.9; 0 ; 0 ; 0 ; 0 ; 0; 0.0; 0.0; 0.0; 0.0
53.0; 0 ; 0 ; 0 ; 0 ; 0; 0.008056640625; 0.0; 0.0; 0.0
53.1; 0 ; 0 ; 0 ; 0 ; 0; 0.00966796875; 0.004833984375; 0.0024169921875; 0.0
53.2; 0 ; 0 ; 0 ; 0 ; 0; 0.027392578125; 0.0249755859375; 0.0185302734375; 0.0249755859375
53.3; 0 ; 0 ; 0 ; 0 ; 0; 0.088623046875; 0.101513671875; 0.120849609375; 0.082177734375
53.4; 0 ; 0 ; 0 ; 0 ; 0; 0.15146484375; 0.153076171875; 0.169189453125; 0.09345703125
53.5; 0 ; 0 ; 0 ; 0 ; 0; 0.20947265625; 0.21591796875; 0.23203125; 0.130517578125
53.6; 0 ; 0 ; 0 ; 0 ; 0; 0.20302734375; 0.231225585938; 0.233642578125; 0.103125
53.7; 0 ; 0 ; 0 ; 0 ; 0; 0.178857421875; 0.20625; 0.20625; 0.078955078125
53.8; 0 ; 0 ; 0 ; 0 ; 0; 0.11279296875; 0.115209960937; 0.117626953125; 0.02900390625
53.9; 0 ; 0 ; 0 ; 0 ; 0; 0.0; 0.0; 0.0; 0.0
54.0; 0 ; 0 ; 0 ; 0 ; 0; 0.0; 0.0; 0.0; 0.001611328125
54.1; 0 ; 0 ; 0 ; 0 ; 0; 0.0; 0.0; 0.0; 0.0
54.2; 0 ; 0 ; 0 ; 0 ; 0; 0.0378662109375; 0.0580078125; 0.0588134765625; 0.0717041015625
54.3; 0 ; 0 ; 0 ; 0 ; 0; 0.06123046875; 0.069287109375; 0.0797607421875; 0.0
54.4; 0 ; 0 ; 0 ; 0 ; 0; 0.046728515625; 0.069287109375; 0.07734375; 0.095068359375
54.5; 0 ; 0 ; 0 ; 0 ; 0; 0.095068359375; 0.11279296875; 0.111181640625; 0.053173828125
54.6; 0 ; 0 ; 0 ; 0 ; 0; 0.08701171875; 0.107958984375; 0.0990966796875; 0.043505859375
54.7; 0 ; 0 ; 0 ; 0 ; 0; 0.07412109375; 0.088623046875; 0.104736328125; 0.033837890625
54.8; 0 ; 0 ; 0 ; 0 ; 0; 0.06123046875; 0.0700927734375; 0.0837890625; 0.0322265625
54.9; 0 ; 0 ; 0 ; 0 ; 0; 0.02900390625; 0.037060546875; 0.040283203125; 0.0120849609375
55.0; 0 ; 0 ; 0 ; 0 ; 0; 0.0; 0.0; 0.0; 0.00966796875
55.1; 0 ; 0 ; 0 ; 0 ; 0; 0.0; 0.0; 0.0; 0.011279296875
55.2; 0 ; 0 ; 0 ; 0 ; 0; 0.0; 0.0; 0.0; 0.0
55.3; 0 ; 0 ; 0 ; 0 ; 0; 0.011279296875; 0.0; 0.0; 0.0
55.4; 0 ; 0 ; 0 ; 0 ; 0; 0.00966796875; 0.004833984375; 0.001611328125; 0.0
55.5; 0 ; 0 ; 0 ; 0 ; 0; 0.024169921875; 0.02255859375; 0.0153076171875; 0.0185302734375
55.6; 0 ; 0 ; 0 ; 0 ; 0; 0.024169921875; 0.024169921875; 0.02578125; 0.024169921875
55.7; 0 ; 0 ; 0 ; 0 ; 0; 0.0322265625; 0.033837890625; 0.033837890625; 0.027392578125
55.8; 0 ; 0 ; 0 ; 0 ; 0; 0.0322265625; 0.03544921875; 0.040283203125; 0.027392578125
55.9; 0 ; 0 ; 0 ; 0 ; 0; 0.049951171875; 0.056396484375; 0.064453125; 0.0346435546875
56.0; 0 ; 0 ; 0 ; 0 ; 0; 0.0580078125; 0.0636474609375; 0.07734375; 0.040283203125
56.1; 0 ; 0 ; 0 ; 0 ; 0; 0.08056640625; 0.0894287109375; 0.105541992187; 0.053173828125
56.2; 0 ; 0 ; 0 ; 0 ; 0; 0.09990234375; 0.115209960937; 0.111987304688; 0.0539794921875
56.3; 0 ; 0 ; 0 ; 0 ; 0; 0.075732421875; 0.095068359375; 0.111181640625; 0.0443115234375
56.4; 0 ; 0 ; 0 ; 0 ; 0; 0.06767578125; 0.082177734375; 0.098291015625; 0.033837890625
56.5; 0 ; 0 ; 0 ; 0 ; 0; 0.0451171875; 0.056396484375; 0.064453125; 0.02255859375
56.6; 0 ; 0 ; 0 ; 0 ; 0; 0.01611328125; 0.0185302734375; 0.020947265625; 0.00966796875
56.7; 0 ; 0 ; 0 ; 0 ; 0; 0.0; 0.0; 0.0; 0.0064453125
56.8; 0 ; 0 ; 0 ; 0 ; 0; 0.0; 0.0; 0.0; 0.008056640625
56.9; 0 ; 0 ; 0 ; 0 ; 0; 0.0; 0.0; 0.0; 0.0
57.0; 0 ; 0 ; 0 ; 0 ; 0; 0.0120849609375; 0.0; 0.0; 0.0
57.1; 0 ; 0 ; 0 ; 0 ; 0; 0.017724609375; 0.0120849609375; 0.014501953125; 0.0
57.2; 0 ; 0 ; 0 ; 0 ; 0; 0.024169921875; 0.024169921875; 0.017724609375; 0.02255859375
57.3; 0 ; 0 ; 0 ; 0 ; 0; 0.024169921875; 0.0249755859375; 0.0281982421875; 0.027392578125
57.4; 0 ; 0 ; 0 ; 0 ; 0; 0.030615234375; 0.033837890625; 0.038671875; 0.027392578125
57.5; 0 ; 0 ; 0 ; 0 ; 0; 0.04189453125; 0.043505859375; 0.0475341796875; 0.0322265625
57.6; 0 ; 0 ; 0 ; 0 ; 0; 0.0580078125; 0.0636474609375; 0.078955078125; 0.038671875
57.7; 0 ; 0 ; 0 ; 0 ; 0; 0.07412109375; 0.082177734375; 0.0966796875; 0.049951171875
57.8; 0 ; 0 ; 0 ; 0 ; 0; 0.09990234375; 0.115209960937; 0.117626953125; 0.049951171875
57.9; 0 ; 0 ; 0 ; 0 ; 0; 0.0837890625; 0.104736328125; 0.098291015625; 0.04833984375
58.0; 0 ; 0 ; 0 ; 0 ; 0; 0.0708984375; 0.0829833984375; 0.098291015625; 0.0346435546875
58.1; 0 ; 0 ; 0 ; 0 ; 0; 0.05478515625; 0.062841796875; 0.07734375; 0.027392578125
58.2; 0 ; 0 ; 0 ; 0 ; 0; 0.02255859375; 0.0249755859375; 0.027392578125; 0.011279296875
58.3; 0 ; 0 ; 0 ; 0 ; 0; 0.0; 0.0; 0.0; 0.008056640625
58.4; 0 ; 0 ; 0 ; 0 ; 0; 0.0; 0.0; 0.0; 0.0
58.5; 0 ; 0 ; 0 ; 0 ; 0; 0.011279296875; 0.0; 0.0; 0.0
58.6; 0 ; 0 ; 0 ; 0 ; 0; 0.0; 0.0; 0.0; 0.0
58.7; 0 ; 0 ; 0 ; 0 ; 0; 0.0120849609375; 0.0; 0.0; 0.0
58.8; 0 ; 0 ; 0 ; 0 ; 0; 0.0193359375; 0.017724609375; 0.0153076171875; 0.0
58.9; 0 ; 0 ; 0 ; 0 ; 0; 0.024169921875; 0.024169921875; 0.020947265625; 0.0298095703125
59.0; 0 ; 0 ; 0 ; 0 ; 0; 0.024169921875; 0.030615234375; 0.033837890625; 0.027392578125
59.1; 0 ; 0 ; 0 ; 0 ; 0; 0.03544921875; 0.037060546875; 0.040283203125; 0.027392578125
59.2; 0 ; 0 ; 0 ; 0 ; 0; 0.04189453125; 0.0443115234375; 0.053173828125; 0.033837890625
59.3; 0 ; 0 ; 0 ; 0 ; 0; 0.06123046875; 0.0700927734375; 0.085400390625; 0.040283203125
59.4; 0 ; 0 ; 0 ; 0 ; 0; 0.082177734375; 0.095068359375; 0.116015625; 0.0572021484375
59.5; 0 ; 0 ; 0 ; 0 ; 0; 0.09990234375; 0.120849609375; 0.117626953125; 0.04833984375
59.6; 0 ; 0 ; 0 ; 0 ; 0; 0.075732421875; 0.0894287109375; 0.104736328125; 0.0443115234375
59.7; 0 ; 0 ; 0 ; 0 ; 0; 0.06767578125; 0.0765380859375; 0.0926513671875; 0.033837890625
59.8; 0 ; 0 ; 0 ; 0 ; 0; 0.04189453125; 0.04833984375; 0.053173828125; 0.020947265625
59.9; 0 ; 0 ; 0 ; 0 ; 0; 0.011279296875; 0.017724609375; 0.0153076171875; 0.00966796875
60.0; 0 ; 0 ; 0 ; 0 ; 0; 0.0; 0.0; 0.0; 0.0064453125
60.1; 0 ; 0 ; 0 ; 0 ; 0; 0.0; 0.0; 0.0; 0.0
60.2; 0 ; 0 ; 0 ; 0 ; 0; 0.011279296875; 0.0; 0.0; 0.0
60.3; 0 ; 0 ; 0 ; 0 ; 0; 0.0; 0.0; 0.0; 0.0
60.4; 0 ; 0 ; 0 ; 0 ; 0; 0.024169921875; 0.011279296875; 0.0024169921875; 0.008056640625
60.5; 0 ; 0 ; 0 ; 0 ; 0; 0.02255859375; 0.02255859375; 0.020947265625; 0.0281982421875
60.6; 0 ; 0 ; 0 ; 0 ; 0; 0.0322265625; 0.033837890625; 0.033837890625; 0.024169921875
60.7; 0 ; 0 ; 0 ; 0 ; 0; 0.030615234375; 0.0314208984375; 0.038671875; 0.030615234375
60.8; 0 ; 0 ; 0 ; 0 ; 0; 0.037060546875; 0.043505859375; 0.0507568359375; 0.0346435546875
60.9; 0 ; 0 ; 0 ; 0 ; 0; 0.05478515625; 0.062841796875; 0.072509765625; 0.03544921875
61.0; 0 ; 0 ; 0 ; 0 ; 0; 0.06767578125; 0.075732421875; 0.090234375; 0.046728515625
61.1; 0 ; 0 ; 0 ; 0 ; 0; 0.0966796875; 0.108764648438; 0.1095703125; 0.0572021484375
61.2; 0 ; 0 ; 0 ; 0 ; 0; 0.09345703125; 0.114404296875; 0.1095703125; 0.040283203125
61.3; 0 ; 0 ; 0 ; 0 ; 0; 0.06767578125; 0.08701171875; 0.104736328125; 0.0410888671875
61.4; 0 ; 0 ; 0 ; 0 ; 0; 0.06123046875; 0.07412109375; 0.085400390625; 0.0346435546875
61.5; 0 ; 0 ; 0 ; 0 ; 0; 0.0322265625; 0.037060546875; 0.040283203125; 0.01611328125
61.6; 0 ; 0 ; 0 ; 0 ; 0; 0.00322265625; 0.004833984375; 0.001611328125; 0.008056640625
61.7; 0 ; 0 ; 0 ; 0 ; 0; 0.0; 0.0; 0.0; 0.0088623046875
61.8; 0 ; 0 ; 0 ; 0 ; 0; 0.0; 0.0; 0.0; 0.0
61.9; 0 ; 0 ; 0 ; 0 ; 0; 0.011279296875; 0.0; 0.0; 0.0
62.0; 0 ; 0 ; 0 ; 0 ; 0; 0.00322265625; 0.0; 0.0; 0.0
62.1; 0 ; 0 ; 0 ; 0 ; 0; 0.024169921875; 0.017724609375; 0.011279296875; 0.0120849609375
62.2; 0 ; 0 ; 0 ; 0 ; 0; 0.024169921875; 0.024169921875; 0.02578125; 0.024169921875
62.3; 0 ; 0 ; 0 ; 0 ; 0; 0.02900390625; 0.030615234375; 0.033837890625; 0.02578125
62.4; 0 ; 0 ; 0 ; 0 ; 0; 0.0322265625; 0.03544921875; 0.038671875; 0.03544921875
62.5; 0 ; 0 ; 0 ; 0 ; 0; 0.049951171875; 0.053173828125; 0.056396484375; 0.0378662109375
62.6; 0 ; 0 ; 0 ; 0 ; 0; 0.05478515625; 0.062841796875; 0.072509765625; 0.038671875
62.7; 0 ; 0 ; 0 ; 0 ; 0; 0.07412109375; 0.0829833984375; 0.098291015625; 0.049951171875
62.8; 0 ; 0 ; 0 ; 0 ; 0; 0.0966796875; 0.114404296875; 0.111987304688; 0.0507568359375
62.9; 0 ; 0 ; 0 ; 0 ; 0; 0.07412109375; 0.0894287109375; 0.105541992187; 0.043505859375
63.0; 0 ; 0 ; 0 ; 0 ; 0; 0.06767578125; 0.0765380859375; 0.0926513671875; 0.0378662109375
63.1; 0 ; 0 ; 0 ; 0 ; 0; 0.0451171875; 0.05478515625; 0.064453125; 0.02578125
63.2; 0 ; 0 ; 0 ; 0 ; 0; 0.02255859375; 0.02255859375; 0.02578125; 0.0169189453125
63.3; 0 ; 0 ; 0 ; 0 ; 0; 0.0; 0.0; 0.0; 0.0120849609375
63.4; 0 ; 0 ; 0 ; 0 ; 0; 0.0; 0.0; 0.0; 0.012890625
63.5; 0 ; 0 ; 0 ; 0 ; 0; 0.0; 0.0; 0.0; 0.0
63.6; 0 ; 0 ; 0 ; 0 ; 0; 0.020947265625; 0.0; 0.0; 0.0
63.7; 0 ; 0 ; 0 ; 0 ; 0; 0.017724609375; 0.0120849609375; 0.012890625; 0.0
63.8; 0 ; 0 ; 0 ; 0 ; 0; 0.027392578125; 0.024169921875; 0.017724609375; 0.024169921875
63.9; 0 ; 0 ; 0 ; 0 ; 0; 0.024169921875; 0.0249755859375; 0.027392578125; 0.0298095703125
64.0; 0 ; 0 ; 0 ; 0 ; 0; 0.030615234375; 0.0314208984375; 0.033837890625; 0.02578125
64.1; 0 ; 0 ; 0 ; 0 ; 0; 0.03544921875; 0.037060546875; 0.040283203125; 0.0378662109375
64.2; 0 ; 0 ; 0 ; 0 ; 0; 0.049951171875; 0.056396484375; 0.064453125; 0.037060546875
64.3; 0 ; 0 ; 0 ; 0 ; 0; 0.0580078125; 0.0636474609375; 0.078955078125; 0.040283203125
64.4; 0 ; 0 ; 0 ; 0 ; 0; 0.095068359375; 0.108764648438; 0.105541992187; 0.049951171875
64.5; 0 ; 0 ; 0 ; 0 ; 0; 0.08701171875; 0.10634765625; 0.0966796875; 0.043505859375
64.6; 0 ; 0 ; 0 ; 0 ; 0; 0.06767578125; 0.082177734375; 0.098291015625; 0.0410888671875
64.7; 0 ; 0 ; 0 ; 0 ; 0; 0.056396484375; 0.06767578125; 0.078955078125; 0.0322265625
64.8; 0 ; 0 ; 0 ; 0 ; 0; 0.04189453125; 0.04833984375; 0.053173828125; 0.0265869140625
64.9; 0 ; 0 ; 0 ; 0 ; 0; 0.01611328125; 0.0185302734375; 0.0193359375; 0.011279296875
65.0; 0 ; 0 ; 0 ; 0 ; 0; 0.0; 0.0; 0.0; 0.0064453125
65.1; 0 ; 0 ; 0 ; 0 ; 0; 0.0; 0.0; 0.0; 0.011279296875
65.2; 0 ; 0 ; 0 ; 0 ; 0; 0.0; 0.0; 0.0; 0.0
65.3; 0 ; 0 ; 0 ; 0 ; 0; 0.017724609375; 0.0; 0.0; 0.0
65.4; 0 ; 0 ; 0 ; 0 ; 0; 0.02255859375; 0.0185302734375; 0.0193359375; 0.0
65.5; 0 ; 0 ; 0 ; 0 ; 0; 0.027392578125; 0.0249755859375; 0.02578125; 0.030615234375
65.6; 0 ; 0 ; 0 ; 0 ; 0; 0.024169921875; 0.0249755859375; 0.0281982421875; 0.02578125
65.7; 0 ; 0 ; 0 ; 0 ; 0; 0.030615234375; 0.0314208984375; 0.0346435546875; 0.027392578125
65.8; 0 ; 0 ; 0 ; 0 ; 0; 0.03544921875; 0.0378662109375; 0.046728515625; 0.030615234375
65.9; 0 ; 0 ; 0 ; 0 ; 0; 0.05478515625; 0.062841796875; 0.0733154296875; 0.038671875
66.0; 0 ; 0 ; 0 ; 0 ; 0; 0.07412109375; 0.0829833984375; 0.0990966796875; 0.04833984375
66.1; 0 ; 0 ; 0 ; 0 ; 0; 0.09990234375; 0.115209960937; 0.1095703125; 0.046728515625
66.2; 0 ; 0 ; 0 ; 0 ; 0; 0.075732421875; 0.0958740234375; 0.105541992187; 0.0410888671875
66.3; 0 ; 0 ; 0 ; 0 ; 0; 0.062841796875; 0.075732421875; 0.091845703125; 0.033837890625
66.4; 0 ; 0 ; 0 ; 0 ; 0; 0.049951171875; 0.06123046875; 0.0708984375; 0.027392578125
66.5; 0 ; 0 ; 0 ; 0 ; 0; 0.033837890625; 0.0378662109375; 0.0451171875; 0.014501953125
66.6; 0 ; 0 ; 0 ; 0 ; 0; 0.0; 0.0; 0.0; 0.0120849609375
66.7; 0 ; 0 ; 0 ; 0 ; 0; 0.0; 0.0; 0.0; 0.0
66.8; 0 ; 0 ; 0 ; 0 ; 0; 0.0120849609375; 0.0; 0.0; 0.0
66.9; 0 ; 0 ; 0 ; 0 ; 0; 0.0; 0.0; 0.0; 0.0
67.0; 0 ; 0 ; 0 ; 0 ; 0; 0.020947265625; 0.00966796875; 0.0024169921875; 0.008056640625
67.1; 0 ; 0 ; 0 ; 0 ; 0; 0.02255859375; 0.02255859375; 0.02578125; 0.0
67.2; 0 ; 0 ; 0 ; 0 ; 0; 0.027392578125; 0.0249755859375; 0.02578125; 0.0314208984375
67.3; 0 ; 0 ; 0 ; 0 ; 0; 0.024169921875; 0.030615234375; 0.033837890625; 0.02578125
67.4; 0 ; 0 ; 0 ; 0 ; 0; 0.030615234375; 0.030615234375; 0.0346435546875; 0.027392578125
67.5; 0 ; 0 ; 0 ; 0 ; 0; 0.049951171875; 0.056396484375; 0.064453125; 0.0378662109375
67.6; 0 ; 0 ; 0 ; 0 ; 0; 0.06123046875; 0.069287109375; 0.078955078125; 0.0443115234375
67.7; 0 ; 0 ; 0 ; 0 ; 0; 0.082177734375; 0.095068359375; 0.116015625; 0.05478515625
67.8; 0 ; 0 ; 0 ; 0 ; 0; 0.095068359375; 0.115209960937; 0.1095703125; 0.040283203125
67.9; 0 ; 0 ; 0 ; 0 ; 0; 0.0708984375; 0.088623046875; 0.104736328125; 0.038671875
68.0; 0 ; 0 ; 0 ; 0 ; 0; 0.06123046875; 0.07412109375; 0.085400390625; 0.0322265625
68.1; 0 ; 0 ; 0 ; 0 ; 0; 0.043505859375; 0.049951171875; 0.059619140625; 0.02578125
68.2; 0 ; 0 ; 0 ; 0 ; 0; 0.00966796875; 0.011279296875; 0.008056640625; 0.011279296875
68.3; 0 ; 0 ; 0 ; 0 ; 0; 0.0; 0.0; 0.0; 0.008056640625
68.4; 0 ; 0 ; 0 ; 0 ; 0; 0.0; 0.0; 0.0; 0.0
68.5; 0 ; 0 ; 0 ; 0 ; 0; 0.017724609375; 0.0; 0.0; 0.0
68.6; 0 ; 0 ; 0 ; 0 ; 0; 0.0; 0.0; 0.0; 0.0
68.7; 0 ; 0 ; 0 ; 0 ; 0; 0.024169921875; 0.020947265625; 0.0120849609375; 0.0185302734375
68.8; 0 ; 0 ; 0 ; 0 ; 0; 0.02255859375; 0.024169921875; 0.027392578125; 0.0314208984375
68.9; 0 ; 0 ; 0 ; 0 ; 0; 0.02900390625; 0.030615234375; 0.0346435546875; 0.024169921875
69.0; 0 ; 0 ; 0 ; 0 ; 0; 0.02900390625; 0.030615234375; 0.0346435546875; 0.0314208984375
69.1; 0 ; 0 ; 0 ; 0 ; 0; 0.043505859375; 0.04833984375; 0.053173828125; 0.033837890625
69.2; 0 ; 0 ; 0 ; 0 ; 0; 0.05478515625; 0.062841796875; 0.072509765625; 0.038671875
69.3; 0 ; 0 ; 0 ; 0 ; 0; 0.06767578125; 0.075732421875; 0.090234375; 0.0451171875
69.4; 0 ; 0 ; 0 ; 0 ; 0; 0.088623046875; 0.10634765625; 0.103125; 0.049951171875
69.5; 0 ; 0 ; 0 ; 0 ; 0; 0.08056640625; 0.101513671875; 0.116015625; 0.037060546875
69.6; 0 ; 0 ; 0 ; 0 ; 0; 0.062841796875; 0.0765380859375; 0.091845703125; 0.0378662109375
69.7; 0 ; 0 ; 0 ; 0 ; 0; 0.049951171875; 0.06123046875; 0.0708984375; 0.02900390625
69.8; 0 ; 0 ; 0 ; 0 ; 0; 0.024169921875; 0.030615234375; 0.038671875; 0.014501953125
69.9; 0 ; 0 ; 0 ; 0 ; 0; 0.00322265625; 0.00322265625; 0.001611328125; 0.0120849609375
70.0; 0 ; 0 ; 0 ; 0 ; 0; 0.0; 0.0; 0.0; 0.011279296875
70.1; 0 ; 0 ; 0 ; 0 ; 0; 0.0; 0.0; 0.0; 0.0
70.2; 0 ; 0 ; 0 ; 0 ; 0; 0.017724609375; 0.0; 0.0; 0.0
70.3; 0 ; 0 ; 0 ; 0 ; 0; 0.011279296875; 0.0056396484375; 0.008056640625; 0.0
70.4; 0 ; 0 ; 0 ; 0 ; 0; 0.027392578125; 0.024169921875; 0.017724609375; 0.02255859375
70.5; 0 ; 0 ; 0 ; 0 ; 0; 0.02900390625; 0.030615234375; 0.0322265625; 0.024169921875
70.6; 0 ; 0 ; 0 ; 0 ; 0; 0.02900390625; 0.030615234375; 0.033837890625; 0.02578125
70.7; 0 ; 0 ; 0 ; 0 ; 0; 0.03544921875; 0.037060546875; 0.040283203125; 0.027392578125
70.8; 0 ; 0 ; 0 ; 0 ; 0; 0.04833984375; 0.053173828125; 0.059619140625; 0.0346435546875
70.9; 0 ; 0 ; 0 ; 0 ; 0; 0.0580078125; 0.0636474609375; 0.072509765625; 0.037060546875
71.0; 0 ; 0 ; 0 ; 0 ; 0; 0.075732421875; 0.088623046875; 0.103125; 0.05478515625
71.1; 0 ; 0 ; 0 ; 0 ; 0; 0.09990234375; 0.115209960937; 0.1095703125; 0.046728515625
71.2; 0 ; 0 ; 0 ; 0 ; 0; 0.0708984375; 0.088623046875; 0.104736328125; 0.0410888671875
71.3; 0 ; 0 ; 0 ; 0 ; 0; 0.062841796875; 0.075732421875; 0.090234375; 0.0346435546875
71.4; 0 ; 0 ; 0 ; 0 ; 0; 0.0451171875; 0.053173828125; 0.059619140625; 0.0217529296875
71.5; 0 ; 0 ; 0 ; 0 ; 0; 0.0193359375; 0.024169921875; 0.027392578125; 0.0120849609375
71.6; 0 ; 0 ; 0 ; 0 ; 0; 0.0; 0.0; 0.0; 0.008056640625
71.7; 0 ; 0 ; 0 ; 0 ; 0; 0.0; 0.0; 0.0; 0.0153076171875
71.8; 0 ; 0 ; 0 ; 0 ; 0; 0.0; 0.0; 0.0; 0.0
71.9; 0 ; 0 ; 0 ; 0 ; 0; 0.020947265625; 0.0; 0.0; 0.0
72.0; 0 ; 0 ; 0 ; 0 ; 0; 0.02255859375; 0.0185302734375; 0.0193359375; 0.0
72.1; 0 ; 0 ; 0 ; 0 ; 0; 0.027392578125; 0.0249755859375; 0.020947265625; 0.027392578125
72.2; 0 ; 0 ; 0 ; 0 ; 0; 0.030615234375; 0.030615234375; 0.033837890625; 0.027392578125
72.3; 0 ; 0 ; 0 ; 0 ; 0; 0.03544921875; 0.037060546875; 0.040283203125; 0.027392578125
72.4; 0 ; 0 ; 0 ; 0 ; 0; 0.037060546875; 0.04189453125; 0.046728515625; 0.0322265625
72.5; 0 ; 0 ; 0 ; 0 ; 0; 0.056396484375; 0.0636474609375; 0.072509765625; 0.038671875
72.6; 0 ; 0 ; 0 ; 0 ; 0; 0.07412109375; 0.082177734375; 0.0966796875; 0.046728515625
72.7; 0 ; 0 ; 0 ; 0 ; 0; 0.09345703125; 0.108764648438; 0.111181640625; 0.046728515625
72.8; 0 ; 0 ; 0 ; 0 ; 0; 0.08056640625; 0.09990234375; 0.111181640625; 0.037060546875
72.9; 0 ; 0 ; 0 ; 0 ; 0; 0.06767578125; 0.0765380859375; 0.091845703125; 0.033837890625
73.0; 0 ; 0 ; 0 ; 0 ; 0; 0.049951171875; 0.062841796875; 0.072509765625; 0.02900390625
73.1; 0 ; 0 ; 0 ; 0 ; 0; 0.02255859375; 0.024169921875; 0.027392578125; 0.014501953125
73.2; 0 ; 0 ; 0 ; 0 ; 0; 0.0; 0.0; 0.0; 0.008056640625
73.3; 0 ; 0 ; 0 ; 0 ; 0; 0.0; 0.0; 0.0; 0.0
73.4; 0 ; 0 ; 0 ; 0 ; 0; 0.0120849609375; 0.0; 0.0; 0.0
73.5; 0 ; 0 ; 0 ; 0 ; 0; 0.0; 0.0; 0.0; 0.0
73.6; 0 ; 0 ; 0 ; 0 ; 0; 0.020947265625; 0.004833984375; 0.0; 0.0
73.7; 0 ; 0 ; 0 ; 0 ; 0; 0.024169921875; 0.024169921875; 0.02578125; 0.0
73.8; 0 ; 0 ; 0 ; 0 ; 0; 0.030615234375; 0.02900390625; 0.02578125; 0.0314208984375
73.9; 0 ; 0 ; 0 ; 0 ; 0; 0.02900390625; 0.030615234375; 0.033837890625; 0.024169921875
74.0; 0 ; 0 ; 0 ; 0 ; 0; 0.03544921875; 0.0378662109375; 0.040283203125; 0.0314208984375
74.1; 0 ; 0 ; 0 ; 0 ; 0; 0.04833984375; 0.049951171875; 0.053173828125; 0.0346435546875
74.2; 0 ; 0 ; 0 ; 0 ; 0; 0.05478515625; 0.06123046875; 0.0708984375; 0.038671875
74.3; 0 ; 0 ; 0 ; 0 ; 0; 0.069287109375; 0.0765380859375; 0.0926513671875; 0.0451171875
74.4; 0 ; 0 ; 0 ; 0 ; 0; 0.09990234375; 0.115209960937; 0.111181640625; 0.040283203125
74.5; 0 ; 0 ; 0 ; 0 ; 0; 0.075732421875; 0.095068359375; 0.111181640625; 0.037060546875
74.6; 0 ; 0 ; 0 ; 0 ; 0; 0.069287109375; 0.0829833984375; 0.098291015625; 0.033837890625
74.7; 0 ; 0 ; 0 ; 0 ; 0; 0.049951171875; 0.0572021484375; 0.066064453125; 0.02578125
74.8; 0 ; 0 ; 0 ; 0 ; 0; 0.024169921875; 0.030615234375; 0.033837890625; 0.014501953125
74.9; 0 ; 0 ; 0 ; 0 ; 0; 0.00322265625; 0.00322265625; 0.0; 0.00966796875
75.0; 0 ; 0 ; 0 ; 0 ; 0; 0.0; 0.0; 0.0; 0.0120849609375
75.1; 0 ; 0 ; 0 ; 0 ; 0; 0.0; 0.0; 0.0; 0.014501953125
75.2; 0 ; 0 ; 0 ; 0 ; 0; 0.0; 0.0; 0.0; 0.0
75.3; 0 ; 0 ; 0 ; 0 ; 0; 0.024169921875; 0.0120849609375; 0.004833984375; 0.0120849609375
75.4; 0 ; 0 ; 0 ; 0 ; 0; 0.02255859375; 0.02255859375; 0.020947265625; 0.0
75.5; 0 ; 0 ; 0 ; 0 ; 0; 0.027392578125; 0.0249755859375; 0.02578125; 0.0314208984375
75.6; 0 ; 0 ; 0 ; 0 ; 0; 0.030615234375; 0.0314208984375; 0.033837890625; 0.02578125
75.7; 0 ; 0 ; 0 ; 0 ; 0; 0.03544921875; 0.037060546875; 0.040283203125; 0.033837890625
75.8; 0 ; 0 ; 0 ; 0 ; 0; 0.05478515625; 0.062841796875; 0.0708984375; 0.037060546875
75.9; 0 ; 0 ; 0 ; 0 ; 0; 0.06123046875; 0.0700927734375; 0.085400390625; 0.0475341796875
76.0; 0 ; 0 ; 0 ; 0 ; 0; 0.088623046875; 0.10634765625; 0.104736328125; 0.0539794921875
76.1; 0 ; 0 ; 0 ; 0 ; 0; 0.090234375; 0.108764648438; 0.098291015625; 0.043505859375
76.2; 0 ; 0 ; 0 ; 0 ; 0; 0.06767578125; 0.082177734375; 0.098291015625; 0.0346435546875
76.3; 0 ; 0 ; 0 ; 0 ; 0; 0.06123046875; 0.07412109375; 0.0862060546875; 0.02900390625
76.4; 0 ; 0 ; 0 ; 0 ; 0; 0.02900390625; 0.037060546875; 0.0410888671875; 0.014501953125
76.5; 0 ; 0 ; 0 ; 0 ; 0; 0.0; 0.0; 0.0; 0.008056640625
76.6; 0 ; 0 ; 0 ; 0 ; 0; 0.0; 0.0; 0.0; 0.0
76.7; 0 ; 0 ; 0 ; 0 ; 0; 0.011279296875; 0.0; 0.0; 0.0
76.8; 0 ; 0 ; 0 ; 0 ; 0; 0.0; 0.0; 0.0; 0.0
76.9; 0 ; 0 ; 0 ; 0 ; 0; 0.017724609375; 0.0; 0.0; 0.0
77.0; 0 ; 0 ; 0 ; 0 ; 0; 0.01611328125; 0.011279296875; 0.014501953125; 0.0
77.1; 0 ; 0 ; 0 ; 0 ; 0; 0.027392578125; 0.0249755859375; 0.020947265625; 0.0265869140625
77.2; 0 ; 0 ; 0 ; 0 ; 0; 0.030615234375; 0.030615234375; 0.0322265625; 0.0217529296875
77.3; 0 ; 0 ; 0 ; 0 ; 0; 0.03544921875; 0.037060546875; 0.040283203125; 0.027392578125
77.4; 0 ; 0 ; 0 ; 0 ; 0; 0.037060546875; 0.043505859375; 0.046728515625; 0.0322265625
77.5; 0 ; 0 ; 0 ; 0 ; 0; 0.0580078125; 0.0636474609375; 0.07734375; 0.0346435546875
77.6; 0 ; 0 ; 0 ; 0 ; 0; 0.069287109375; 0.0765380859375; 0.0926513671875; 0.0507568359375
77.7; 0 ; 0 ; 0 ; 0 ; 0; 0.0966796875; 0.115209960937; 0.116015625; 0.0507568359375
77.8; 0 ; 0 ; 0 ; 0 ; 0; 0.075732421875; 0.101513671875; 0.111181640625; 0.040283203125
77.9; 0 ; 0 ; 0 ; 0 ; 0; 0.062841796875; 0.075732421875; 0.091845703125; 0.0378662109375
78.0; 0 ; 0 ; 0 ; 0 ; 0; 0.049951171875; 0.06123046875; 0.0733154296875; 0.02900390625
78.1; 0 ; 0 ; 0 ; 0 ; 0; 0.03544921875; 0.0378662109375; 0.046728515625; 0.02255859375
78.2; 0 ; 0 ; 0 ; 0 ; 0; 0.0064453125; 0.004833984375; 0.0024169921875; 0.0120849609375
78.3; 0 ; 0 ; 0 ; 0 ; 0; 0.0; 0.0; 0.0; 0.008056640625
78.4; 0 ; 0 ; 0 ; 0 ; 0; 0.0; 0.0; 0.0; 0.012890625
78.5; 0 ; 0 ; 0 ; 0 ; 0; 0.0; 0.0; 0.0; 0.0
78.6; 0 ; 0 ; 0 ; 0 ; 0; 0.020947265625; 0.00322265625; 0.0; 0.0
78.7; 0 ; 0 ; 0 ; 0 ; 0; 0.0193359375; 0.017724609375; 0.020947265625; 0.0
78.8; 0 ; 0 ; 0 ; 0 ; 0; 0.027392578125; 0.0249755859375; 0.020947265625; 0.0281982421875
78.9; 0 ; 0 ; 0 ; 0 ; 0; 0.0322265625; 0.0314208984375; 0.033837890625; 0.0217529296875
79.0; 0 ; 0 ; 0 ; 0 ; 0; 0.0322265625; 0.03544921875; 0.038671875; 0.027392578125
79.1; 0 ; 0 ; 0 ; 0 ; 0; 0.04189453125; 0.046728515625; 0.053173828125; 0.0346435546875
79.2; 0 ; 0 ; 0 ; 0 ; 0; 0.05478515625; 0.062841796875; 0.0708984375; 0.037060546875
79.3; 0 ; 0 ; 0 ; 0 ; 0; 0.06767578125; 0.0765380859375; 0.090234375; 0.0507568359375
79.4; 0 ; 0 ; 0 ; 0 ; 0; 0.09345703125; 0.107958984375; 0.104736328125; 0.0507568359375
79.5; 0 ; 0 ; 0 ; 0 ; 0; 0.075732421875; 0.095068359375; 0.104736328125; 0.038671875
79.6; 0 ; 0 ; 0 ; 0 ; 0; 0.06767578125; 0.082177734375; 0.0990966796875; 0.0378662109375
79.7; 0 ; 0 ; 0 ; 0 ; 0; 0.04833984375; 0.0572021484375; 0.066064453125; 0.0281982421875
79.8; 0 ; 0 ; 0 ; 0 ; 0; 0.024169921875; 0.0314208984375; 0.033837890625; 0.0185302734375
79.9; 0 ; 0 ; 0 ; 0 ; 0; 0.0; 0.0; 0.0; 0.0120849609375
80.0; 0 ; 0 ; 0 ; 0 ; 0; 0.0; 0.0; 0.0; 0.0088623046875
80.1; 0 ; 0 ; 0 ; 0 ; 0; 0.0; 0.0; 0.0; 0.0
80.2; 0 ; 0 ; 0 ; 0 ; 0; 0.014501953125; 0.0; 0.0; 0.0
80.3; 0 ; 0 ; 0 ; 0 ; 0; 0.011279296875; 0.0056396484375; 0.0064453125; 0.0
80.4; 0 ; 0 ; 0 ; 0 ; 0; 0.027392578125; 0.024169921875; 0.0153076171875; 0.020947265625
80.5; 0 ; 0 ; 0 ; 0 ; 0; 0.024169921875; 0.0249755859375; 0.027392578125; 0.02578125
80.6; 0 ; 0 ; 0 ; 0 ; 0; 0.024169921875; 0.030615234375; 0.033837890625; 0.0314208984375
80.7; 0 ; 0 ; 0 ; 0 ; 0; 0.03544921875; 0.037060546875; 0.040283203125; 0.0281982421875
80.8; 0 ; 0 ; 0 ; 0 ; 0; 0.04833984375; 0.049951171875; 0.0580078125; 0.033837890625
80.9; 0 ; 0 ; 0 ; 0 ; 0; 0.056396484375; 0.0636474609375; 0.078955078125; 0.038671875
81.0; 0 ; 0 ; 0 ; 0 ; 0; 0.075732421875; 0.088623046875; 0.104736328125; 0.0539794921875
81.1; 0 ; 0 ; 0 ; 0 ; 0; 0.103125; 0.103125; 0.098291015625; 0.0451171875
81.2; 0 ; 0 ; 0 ; 0 ; 0; 0.07412109375; 0.0894287109375; 0.105541992187; 0.037060546875
81.3; 0 ; 0 ; 0 ; 0 ; 0; 0.062841796875; 0.075732421875; 0.091845703125; 0.033837890625
81.4; 0 ; 0 ; 0 ; 0 ; 0; 0.037060546875; 0.04833984375; 0.053173828125; 0.024169921875
81.5; 0 ; 0 ; 0 ; 0 ; 0; 0.01611328125; 0.017724609375; 0.020947265625; 0.012890625
81.6; 0 ; 0 ; 0 ; 0 ; 0; 0.0; 0.0; 0.0; 0.0120849609375
81.7; 0 ; 0 ; 0 ; 0 ; 0; 0.0; 0.0; 0.0; 0.014501953125
81.8; 0 ; 0 ; 0 ; 0 ; 0; 0.0; 0.0; 0.0; 0.0
81.9; 0 ; 0 ; 0 ; 0 ; 0; 0.017724609375; 0.0; 0.0; 0.0
82.0; 0 ; 0 ; 0 ; 0 ; 0; 0.01611328125; 0.0120849609375; 0.014501953125; 0.0
82.1; 0 ; 0 ; 0 ; 0 ; 0; 0.027392578125; 0.024169921875; 0.0185302734375; 0.024169921875
82.2; 0 ; 0 ; 0 ; 0 ; 0; 0.02900390625; 0.030615234375; 0.033837890625; 0.02578125
82.3; 0 ; 0 ; 0 ; 0 ; 0; 0.024169921875; 0.030615234375; 0.0346435546875; 0.02578125
82.4; 0 ; 0 ; 0 ; 0 ; 0; 0.037060546875; 0.043505859375; 0.046728515625; 0.0322265625
82.5; 0 ; 0 ; 0 ; 0 ; 0; 0.06123046875; 0.06767578125; 0.07734375; 0.033837890625
82.6; 0 ; 0 ; 0 ; 0 ; 0; 0.07412109375; 0.0829833984375; 0.098291015625; 0.0507568359375
82.7; 0 ; 0 ; 0 ; 0 ; 0; 0.09345703125; 0.114404296875; 0.111987304688; 0.0451171875
82.8; 0 ; 0 ; 0 ; 0 ; 0; 0.075732421875; 0.0958740234375; 0.104736328125; 0.0410888671875
82.9; 0 ; 0 ; 0 ; 0 ; 0; 0.06767578125; 0.0765380859375; 0.091845703125; 0.0378662109375
83.0; 0 ; 0 ; 0 ; 0 ; 0; 0.06123046875; 0.069287109375; 0.078955078125; 0.0281982421875
83.1; 0 ; 0 ; 0 ; 0 ; 0; 0.03544921875; 0.0378662109375; 0.046728515625; 0.020947265625
83.2; 0 ; 0 ; 0 ; 0 ; 0; 0.0; 0.0; 0.0; 0.0088623046875
83.3; 0 ; 0 ; 0 ; 0 ; 0; 0.0; 0.0; 0.0; 0.0
83.4; 0 ; 0 ; 0 ; 0 ; 0; 0.017724609375; 0.0; 0.0; 0.0
83.5; 0 ; 0 ; 0 ; 0 ; 0; 0.0; 0.0; 0.0; 0.0
83.6; 0 ; 0 ; 0 ; 0 ; 0; 0.020947265625; 0.00322265625; 0.0; 0.0024169921875
83.7; 0 ; 0 ; 0 ; 0 ; 0; 0.024169921875; 0.024169921875; 0.02578125; 0.0
83.8; 0 ; 0 ; 0 ; 0 ; 0; 0.027392578125; 0.0249755859375; 0.02578125; 0.0314208984375
83.9; 0 ; 0 ; 0 ; 0 ; 0; 0.024169921875; 0.030615234375; 0.033837890625; 0.02900390625
84.0; 0 ; 0 ; 0 ; 0 ; 0; 0.030615234375; 0.0314208984375; 0.0346435546875; 0.027392578125
84.1; 0 ; 0 ; 0 ; 0 ; 0; 0.04189453125; 0.043505859375; 0.046728515625; 0.03544921875
84.2; 0 ; 0 ; 0 ; 0 ; 0; 0.049951171875; 0.0572021484375; 0.0668701171875; 0.0346435546875
84.3; 0 ; 0 ; 0 ; 0 ; 0; 0.062841796875; 0.07412109375; 0.085400390625; 0.0475341796875
84.4; 0 ; 0 ; 0 ; 0 ; 0; 0.09345703125; 0.107958984375; 0.104736328125; 0.046728515625
84.5; 0 ; 0 ; 0 ; 0 ; 0; 0.07412109375; 0.088623046875; 0.103125; 0.038671875
84.6; 0 ; 0 ; 0 ; 0 ; 0; 0.06767578125; 0.0765380859375; 0.091845703125; 0.03544921875
84.7; 0 ; 0 ; 0 ; 0 ; 0; 0.04833984375; 0.056396484375; 0.064453125; 0.027392578125
84.8; 0 ; 0 ; 0 ; 0 ; 0; 0.02900390625; 0.0314208984375; 0.033837890625; 0.0201416015625
84.9; 0 ; 0 ; 0 ; 0 ; 0; 0.004833984375; 0.00322265625; 0.0; 0.011279296875
85.0; 0 ; 0 ; 0 ; 0 ; 0; 0.0; 0.0; 0.0; 0.011279296875
85.1; 0 ; 0 ; 0 ; 0 ; 0; 0.0; 0.0; 0.0; 0.0
85.2; 0 ; 0 ; 0 ; 0 ; 0; 0.017724609375; 0.00322265625; 0.0; 0.0
85.3; 0 ; 0 ; 0 ; 0 ; 0; 0.01611328125; 0.011279296875; 0.012890625; 0.0
85.4; 0 ; 0 ; 0 ; 0 ; 0; 0.027392578125; 0.02255859375; 0.0185302734375; 0.0249755859375
85.5; 0 ; 0 ; 0 ; 0 ; 0; 0.02900390625; 0.0249755859375; 0.0281982421875; 0.027392578125
85.6; 0 ; 0 ; 0 ; 0 ; 0; 0.03544921875; 0.037060546875; 0.038671875; 0.0281982421875
85.7; 0 ; 0 ; 0 ; 0 ; 0; 0.03544921875; 0.037060546875; 0.040283203125; 0.0322265625
85.8; 0 ; 0 ; 0 ; 0 ; 0; 0.049951171875; 0.05478515625; 0.059619140625; 0.037060546875
85.9; 0 ; 0 ; 0 ; 0 ; 0; 0.056396484375; 0.0636474609375; 0.072509765625; 0.040283203125
86.0; 0 ; 0 ; 0 ; 0 ; 0; 0.088623046875; 0.104736328125; 0.098291015625; 0.046728515625
86.1; 0 ; 0 ; 0 ; 0 ; 0; 0.08701171875; 0.10634765625; 0.091845703125; 0.033837890625
86.2; 0 ; 0 ; 0 ; 0 ; 0; 0.06767578125; 0.082177734375; 0.0966796875; 0.0410888671875
86.3; 0 ; 0 ; 0 ; 0 ; 0; 0.05478515625; 0.0636474609375; 0.07734375; 0.0322265625
86.4; 0 ; 0 ; 0 ; 0 ; 0; 0.043505859375; 0.049951171875; 0.0580078125; 0.02900390625
86.5; 0 ; 0 ; 0 ; 0 ; 0; 0.01611328125; 0.017724609375; 0.020947265625; 0.0185302734375
86.6; 0 ; 0 ; 0 ; 0 ; 0; 0.0; 0.0; 0.0; 0.0153076171875
86.7; 0 ; 0 ; 0 ; 0 ; 0; 0.0; 0.0; 0.0; 0.0
86.8; 0 ; 0 ; 0 ; 0 ; 0; 0.017724609375; 0.0; 0.0; 0.0
86.9; 0 ; 0 ; 0 ; 0 ; 0; 0.0; 0.0; 0.0; 0.02255859375
87.0; 0 ; 0 ; 0 ; 0 ; 0; 0.0193359375; 0.017724609375; 0.020947265625; 0.02578125
87.1; 0 ; 0 ; 0 ; 0 ; 0; 0.024169921875; 0.0249755859375; 0.0322265625; 0.02578125
87.2; 0 ; 0 ; 0 ; 0 ; 0; 0.024169921875; 0.0249755859375; 0.033837890625; 0.02900390625
87.3; 0 ; 0 ; 0 ; 0 ; 0; 0.03544921875; 0.037060546875; 0.040283203125; 0.027392578125
87.4; 0 ; 0 ; 0 ; 0 ; 0; 0.0451171875; 0.049951171875; 0.0580078125; 0.0346435546875
87.5; 0 ; 0 ; 0 ; 0 ; 0; 0.0580078125; 0.062841796875; 0.072509765625; 0.0346435546875
87.6; 0 ; 0 ; 0 ; 0 ; 0; 0.069287109375; 0.0765380859375; 0.091845703125; 0.0451171875
87.7; 0 ; 0 ; 0 ; 0 ; 0; 0.09345703125; 0.107958984375; 0.104736328125; 0.04189453125
87.8; 0 ; 0 ; 0 ; 0 ; 0; 0.07412109375; 0.0894287109375; 0.0990966796875; 0.0346435546875
87.9; 0 ; 0 ; 0 ; 0 ; 0; 0.062841796875; 0.0765380859375; 0.091845703125; 0.0378662109375
88.0; 0 ; 0 ; 0 ; 0 ; 0; 0.05478515625; 0.0636474609375; 0.072509765625; 0.027392578125
88.1; 0 ; 0 ; 0 ; 0 ; 0; 0.02255859375; 0.0249755859375; 0.0281982421875; 0.017724609375
88.2; 0 ; 0 ; 0 ; 0 ; 0; 0.00322265625; 0.0; 0.0; 0.017724609375
88.3; 0 ; 0 ; 0 ; 0 ; 0; 0.0; 0.0; 0.0; 0.0
88.4; 0 ; 0 ; 0 ; 0 ; 0; 0.017724609375; 0.0; 0.0; 0.0
88.5; 0 ; 0 ; 0 ; 0 ; 0; 0.0; 0.0; 0.0; 0.0
88.6; 0 ; 0 ; 0 ; 0 ; 0; 0.020947265625; 0.008056640625; 0.001611328125; 0.004833984375
88.7; 0 ; 0 ; 0 ; 0 ; 0; 0.02255859375; 0.02255859375; 0.02578125; 0.0
88.8; 0 ; 0 ; 0 ; 0 ; 0; 0.030615234375; 0.030615234375; 0.027392578125; 0.03544921875
88.9; 0 ; 0 ; 0 ; 0 ; 0; 0.024169921875; 0.030615234375; 0.033837890625; 0.0281982421875
89.0; 0 ; 0 ; 0 ; 0 ; 0; 0.03544921875; 0.037060546875; 0.038671875; 0.02578125
89.1; 0 ; 0 ; 0 ; 0 ; 0; 0.049951171875; 0.056396484375; 0.064453125; 0.0322265625
89.2; 0 ; 0 ; 0 ; 0 ; 0; 0.0580078125; 0.0636474609375; 0.07734375; 0.04189453125
89.3; 0 ; 0 ; 0 ; 0 ; 0; 0.075732421875; 0.0894287109375; 0.104736328125; 0.0507568359375
89.4; 0 ; 0 ; 0 ; 0 ; 0; 0.09345703125; 0.108764648438; 0.0990966796875; 0.0410888671875
89.5; 0 ; 0 ; 0 ; 0 ; 0; 0.07412109375; 0.0894287109375; 0.103125; 0.0346435546875
89.6; 0 ; 0 ; 0 ; 0 ; 0; 0.062841796875; 0.075732421875; 0.085400390625; 0.0322265625
89.7; 0 ; 0 ; 0 ; 0 ; 0; 0.04833984375; 0.056396484375; 0.066064453125; 0.0281982421875
89.8; 0 ; 0 ; 0 ; 0 ; 0; 0.02900390625; 0.0314208984375; 0.0346435546875; 0.01611328125
89.9; 0 ; 0 ; 0 ; 0 ; 0; 0.0; 0.0; 0.0; 0.00966796875
90.0; 0 ; 0 ; 0 ; 0 ; 0; 0.0; 0.0; 0.0; 0.0
90.1; 0 ; 0 ; 0 ; 0 ; 0; 0.020947265625; 0.0; 0.0; 0.0
90.2; 0 ; 0 ; 0 ; 0 ; 0; 0.0; 0.0; 0.0; 0.0
90.3; 0 ; 0 ; 0 ; 0 ; 0; 0.024169921875; 0.0120849609375; 0.008056640625; 0.0120849609375
90.4; 0 ; 0 ; 0 ; 0 ; 0; 0.024169921875; 0.0249755859375; 0.027392578125; 0.027392578125
90.5; 0 ; 0 ; 0 ; 0 ; 0; 0.030615234375; 0.0314208984375; 0.033837890625; 0.027392578125
90.6; 0 ; 0 ; 0 ; 0 ; 0; 0.0322265625; 0.0314208984375; 0.038671875; 0.027392578125
90.7; 0 ; 0 ; 0 ; 0 ; 0; 0.037060546875; 0.043505859375; 0.0475341796875; 0.0322265625
90.8; 0 ; 0 ; 0 ; 0 ; 0; 0.049951171875; 0.056396484375; 0.066064453125; 0.033837890625
90.9; 0 ; 0 ; 0 ; 0 ; 0; 0.06123046875; 0.069287109375; 0.0837890625; 0.040283203125
91.0; 0 ; 0 ; 0 ; 0 ; 0; 0.08701171875; 0.09990234375; 0.116015625; 0.0507568359375
91.1; 0 ; 0 ; 0 ; 0 ; 0; 0.08701171875; 0.104736328125; 0.091845703125; 0.0410888671875
91.2; 0 ; 0 ; 0 ; 0 ; 0; 0.062841796875; 0.0765380859375; 0.091845703125; 0.0378662109375
91.3; 0 ; 0 ; 0 ; 0 ; 0; 0.049951171875; 0.062841796875; 0.072509765625; 0.027392578125
91.4; 0 ; 0 ; 0 ; 0 ; 0; 0.0322265625; 0.037060546875; 0.0410888671875; 0.0217529296875
91.5; 0 ; 0 ; 0 ; 0 ; 0; 0.00966796875; 0.011279296875; 0.008056640625; 0.0153076171875
91.6; 0 ; 0 ; 0 ; 0 ; 0; 0.0; 0.0; 0.0; 0.012890625
91.7; 0 ; 0 ; 0 ; 0 ; 0; 0.0; 0.0; 0.0; 0.01611328125
91.8; 0 ; 0 ; 0 ; 0 ; 0; 0.0; 0.0; 0.0; 0.0
91.9; 0 ; 0 ; 0 ; 0 ; 0; 0.024169921875; 0.011279296875; 0.004833984375; 0.00966796875
92.0; 0 ; 0 ; 0 ; 0 ; 0; 0.024169921875; 0.024169921875; 0.027392578125; 0.0
92.1; 0 ; 0 ; 0 ; 0 ; 0; 0.030615234375; 0.0314208984375; 0.030615234375; 0.037060546875
92.2; 0 ; 0 ; 0 ; 0 ; 0; 0.0322265625; 0.03544921875; 0.038671875; 0.02578125
92.3; 0 ; 0 ; 0 ; 0 ; 0; 0.037060546875; 0.037060546875; 0.040283203125; 0.027392578125
92.4; 0 ; 0 ; 0 ; 0 ; 0; 0.049951171875; 0.056396484375; 0.064453125; 0.033837890625
92.5; 0 ; 0 ; 0 ; 0 ; 0; 0.06123046875; 0.069287109375; 0.078955078125; 0.040283203125
92.6; 0 ; 0 ; 0 ; 0 ; 0; 0.08701171875; 0.0958740234375; 0.111181640625; 0.0507568359375
92.7; 0 ; 0 ; 0 ; 0 ; 0; 0.08701171875; 0.104736328125; 0.0926513671875; 0.037060546875
92.8; 0 ; 0 ; 0 ; 0 ; 0; 0.069287109375; 0.0829833984375; 0.098291015625; 0.037060546875
92.9; 0 ; 0 ; 0 ; 0 ; 0; 0.06123046875; 0.0700927734375; 0.0837890625; 0.0346435546875
93.0; 0 ; 0 ; 0 ; 0 ; 0; 0.0451171875; 0.056396484375; 0.064453125; 0.030615234375
93.1; 0 ; 0 ; 0 ; 0 ; 0; 0.00966796875; 0.011279296875; 0.012890625; 0.0185302734375
93.2; 0 ; 0 ; 0 ; 0 ; 0; 0.0; 0.0; 0.0; 0.014501953125
93.3; 0 ; 0 ; 0 ; 0 ; 0; 0.0; 0.0; 0.0; 0.0
93.4; 0 ; 0 ; 0 ; 0 ; 0; 0.017724609375; 0.0; 0.0; 0.0
93.5; 0 ; 0 ; 0 ; 0 ; 0; 0.00966796875; 0.004833984375; 0.001611328125; 0.0
93.6; 0 ; 0 ; 0 ; 0 ; 0; 0.030615234375; 0.02255859375; 0.0153076171875; 0.02255859375
93.7; 0 ; 0 ; 0 ; 0 ; 0; 0.02900390625; 0.030615234375; 0.0322265625; 0.0298095703125
93.8; 0 ; 0 ; 0 ; 0 ; 0; 0.02900390625; 0.030615234375; 0.033837890625; 0.02578125
93.9; 0 ; 0 ; 0 ; 0 ; 0; 0.03544921875; 0.037060546875; 0.040283203125; 0.027392578125
94.0; 0 ; 0 ; 0 ; 0 ; 0; 0.037060546875; 0.043505859375; 0.0475341796875; 0.0281982421875
94.1; 0 ; 0 ; 0 ; 0 ; 0; 0.05478515625; 0.0572021484375; 0.064453125; 0.033837890625
94.2; 0 ; 0 ; 0 ; 0 ; 0; 0.062841796875; 0.0700927734375; 0.085400390625; 0.0410888671875
94.3; 0 ; 0 ; 0 ; 0 ; 0; 0.088623046875; 0.104736328125; 0.098291015625; 0.0459228515625
94.4; 0 ; 0 ; 0 ; 0 ; 0; 0.0708984375; 0.08701171875; 0.0990966796875; 0.03544921875
94.5; 0 ; 0 ; 0 ; 0 ; 0; 0.062841796875; 0.0765380859375; 0.091845703125; 0.0378662109375
94.6; 0 ; 0 ; 0 ; 0 ; 0; 0.0451171875; 0.056396484375; 0.066064453125; 0.02900390625
94.7; 0 ; 0 ; 0 ; 0 ; 0; 0.024169921875; 0.030615234375; 0.033837890625; 0.014501953125
94.8; 0 ; 0 ; 0 ; 0 ; 0; 0.0; 0.00322265625; 0.001611328125; 0.01611328125
94.9; 0 ; 0 ; 0 ; 0 ; 0; 0.0; 0.0; 0.0; 0.012890625
95.0; 0 ; 0 ; 0 ; 0 ; 0; 0.0; 0.0; 0.0; 0.0
95.1; 0 ; 0 ; 0 ; 0 ; 0; 0.020947265625; 0.001611328125; 0.0; 0.0
95.2; 0 ; 0 ; 0 ; 0 ; 0; 0.01611328125; 0.0120849609375; 0.014501953125; 0.0
95.3; 0 ; 0 ; 0 ; 0 ; 0; 0.027392578125; 0.024169921875; 0.020947265625; 0.0281982421875
95.4; 0 ; 0 ; 0 ; 0 ; 0; 0.024169921875; 0.030615234375; 0.033837890625; 0.0281982421875
95.5; 0 ; 0 ; 0 ; 0 ; 0; 0.0322265625; 0.0314208984375; 0.033837890625; 0.02900390625
95.6; 0 ; 0 ; 0 ; 0 ; 0; 0.0322265625; 0.03544921875; 0.038671875; 0.0314208984375
95.7; 0 ; 0 ; 0 ; 0 ; 0; 0.04833984375; 0.0515625; 0.0539794921875; 0.0322265625
95.8; 0 ; 0 ; 0 ; 0 ; 0; 0.05478515625; 0.062841796875; 0.072509765625; 0.037060546875
95.9; 0 ; 0 ; 0 ; 0 ; 0; 0.088623046875; 0.103125; 0.0926513671875; 0.0451171875
96.0; 0 ; 0 ; 0 ; 0 ; 0; 0.075732421875; 0.0958740234375; 0.105541992187; 0.0378662109375
96.1; 0 ; 0 ; 0 ; 0 ; 0; 0.0708984375; 0.082177734375; 0.0966796875; 0.04189453125
96.2; 0 ; 0 ; 0 ; 0 ; 0; 0.05478515625; 0.062841796875; 0.07734375; 0.033837890625
96.3; 0 ; 0 ; 0 ; 0 ; 0; 0.04189453125; 0.049951171875; 0.059619140625; 0.0281982421875
96.4; 0 ; 0 ; 0 ; 0 ; 0; 0.01611328125; 0.0185302734375; 0.020947265625; 0.01611328125
96.5; 0 ; 0 ; 0 ; 0 ; 0; 0.0; 0.0; 0.0; 0.0136962890625
96.6; 0 ; 0 ; 0 ; 0 ; 0; 0.0; 0.0; 0.0; 0.014501953125
96.7; 0 ; 0 ; 0 ; 0 ; 0; 0.0; 0.0; 0.0; 0.0
96.8; 0 ; 0 ; 0 ; 0 ; 0; 0.020947265625; 0.001611328125; 0.0; 0.001611328125
96.9; 0 ; 0 ; 0 ; 0 ; 0; 0.024169921875; 0.02255859375; 0.020947265625; 0.0
97.0; 0 ; 0 ; 0 ; 0 ; 0; 0.027392578125; 0.0249755859375; 0.02578125; 0.0314208984375
97.1; 0 ; 0 ; 0 ; 0 ; 0; 0.02900390625; 0.030615234375; 0.033837890625; 0.02578125
97.2; 0 ; 0 ; 0 ; 0 ; 0; 0.030615234375; 0.03544921875; 0.040283203125; 0.02578125
97.3; 0 ; 0 ; 0 ; 0 ; 0; 0.04833984375; 0.053173828125; 0.059619140625; 0.033837890625
97.4; 0 ; 0 ; 0 ; 0 ; 0; 0.0580078125; 0.0636474609375; 0.072509765625; 0.033837890625
97.5; 0 ; 0 ; 0 ; 0 ; 0; 0.069287109375; 0.0765380859375; 0.091845703125; 0.0451171875
97.6; 0 ; 0 ; 0 ; 0 ; 0; 0.09345703125; 0.108764648438; 0.104736328125; 0.04189453125
97.7; 0 ; 0 ; 0 ; 0 ; 0; 0.07412109375; 0.088623046875; 0.098291015625; 0.038671875
97.8; 0 ; 0 ; 0 ; 0 ; 0; 0.07412109375; 0.088623046875; 0.104736328125; 0.0410888671875
97.9; 0 ; 0 ; 0 ; 0 ; 0; 0.06123046875; 0.0700927734375; 0.078955078125; 0.0322265625
98.0; 0 ; 0 ; 0 ; 0 ; 0; 0.037060546875; 0.0443115234375; 0.053173828125; 0.020947265625
98.1; 0 ; 0 ; 0 ; 0 ; 0; 0.0; 0.0; 0.0; 0.008056640625
98.2; 0 ; 0 ; 0 ; 0 ; 0; 0.0; 0.0; 0.0; 0.0
98.3; 0 ; 0 ; 0 ; 0 ; 0; 0.0120849609375; 0.0; 0.0; 0.0
98.4; 0 ; 0 ; 0 ; 0 ; 0; 0.0; 0.0; 0.0; 0.0
98.5; 0 ; 0 ; 0 ; 0 ; 0; 0.0193359375; 0.0; 0.0; 0.0
98.6; 0 ; 0 ; 0 ; 0 ; 0; 0.01611328125; 0.0120849609375; 0.012890625; 0.0
98.7; 0 ; 0 ; 0 ; 0 ; 0; 0.027392578125; 0.02255859375; 0.0153076171875; 0.020947265625
98.8; 0 ; 0 ; 0 ; 0 ; 0; 0.024169921875; 0.024169921875; 0.027392578125; 0.0281982421875
98.9; 0 ; 0 ; 0 ; 0 ; 0; 0.0322265625; 0.030615234375; 0.033837890625; 0.02578125
99.0; 0 ; 0 ; 0 ; 0 ; 0; 0.043505859375; 0.046728515625; 0.053173828125; 0.037060546875
99.1; 0 ; 0 ; 0 ; 0 ; 0; 0.06123046875; 0.0700927734375; 0.078955078125; 0.0410888671875
99.2; 0 ; 0 ; 0 ; 0 ; 0; 0.075732421875; 0.088623046875; 0.103125; 0.0507568359375
99.3; 0 ; 0 ; 0 ; 0 ; 0; 0.103125; 0.101513671875; 0.118432617188; 0.046728515625
99.4; 0 ; 0 ; 0 ; 0 ; 0; 0.082177734375; 0.101513671875; 0.117626953125; 0.0459228515625
99.5; 0 ; 0 ; 0 ; 0 ; 0; 0.07412109375; 0.0894287109375; 0.105541992187; 0.03544921875
99.6; 0 ; 0 ; 0 ; 0 ; 0; 0.049951171875; 0.06123046875; 0.072509765625; 0.027392578125
99.7; 0 ; 0 ; 0 ; 0 ; 0; 0.00966796875; 0.011279296875; 0.012890625; 0.0193359375
99.8; 0 ; 0 ; 0 ; 0 ; 0; 0.0; 0.0; 0.0; 0.008056640625
99.9; 0 ; 0 ; 0 ; 0 ; 0; 0.0; 0.0; 0.0; 0.0
100.0; 0 ; 0 ; 0 ; 0 ; 0; 0.017724609375; 0.0; 0.0; 0.0
100.1; 0 ; 0 ; 0 ; 0 ; 0; 0.0; 0.0; 0.0; 0.0
100.2; 0 ; 0 ; 0 ; 0 ; 0; 0.024169921875; 0.011279296875; 0.0024169921875; 0.0088623046875
100.3; 0 ; 0 ; 0 ; 0 ; 0; 0.01611328125; 0.017724609375; 0.0193359375; 0.0
100.4; 0 ; 0 ; 0 ; 0 ; 0; 0.027392578125; 0.0249755859375; 0.0217529296875; 0.0298095703125
100.5; 0 ; 0 ; 0 ; 0 ; 0; 0.024169921875; 0.0249755859375; 0.027392578125; 0.024169921875
100.6; 0 ; 0 ; 0 ; 0 ; 0; 0.03544921875; 0.037060546875; 0.038671875; 0.0330322265625
100.7; 0 ; 0 ; 0 ; 0 ; 0; 0.0580078125; 0.0636474609375; 0.072509765625; 0.033837890625
100.8; 0 ; 0 ; 0 ; 0 ; 0; 0.07412109375; 0.082177734375; 0.091845703125; 0.0451171875
100.9; 0 ; 0 ; 0 ; 0 ; 0; 0.103125; 0.0958740234375; 0.118432617188; 0.0539794921875
101.0; 0 ; 0 ; 0 ; 0 ; 0; 0.09990234375; 0.11279296875; 0.104736328125; 0.0459228515625
101.1; 0 ; 0 ; 0 ; 0 ; 0; 0.075732421875; 0.0894287109375; 0.105541992187; 0.0410888671875
101.2; 0 ; 0 ; 0 ; 0 ; 0; 0.062841796875; 0.075732421875; 0.091845703125; 0.0322265625
101.3; 0 ; 0 ; 0 ; 0 ; 0; 0.03544921875; 0.0378662109375; 0.0451171875; 0.0193359375
101.4; 0 ; 0 ; 0 ; 0 ; 0; 0.0; 0.001611328125; 0.001611328125; 0.0120849609375
101.5; 0 ; 0 ; 0 ; 0 ; 0; 0.0; 0.0; 0.0; 0.0088623046875
101.6; 0 ; 0 ; 0 ; 0 ; 0; 0.0; 0.0; 0.0; 0.0
101.7; 0 ; 0 ; 0 ; 0 ; 0; 0.017724609375; 0.0; 0.0; 0.0
101.8; 0 ; 0 ; 0 ; 0 ; 0; 0.00322265625; 0.001611328125; 0.001611328125; 0.0
101.9; 0 ; 0 ; 0 ; 0 ; 0; 0.024169921875; 0.0120849609375; 0.008056640625; 0.0120849609375
102.0; 0 ; 0 ; 0 ; 0 ; 0; 0.017724609375; 0.017724609375; 0.0193359375; 0.0265869140625
102.1; 0 ; 0 ; 0 ; 0 ; 0; 0.024169921875; 0.0249755859375; 0.027392578125; 0.02900390625
102.2; 0 ; 0 ; 0 ; 0 ; 0; 0.02900390625; 0.030615234375; 0.033837890625; 0.0322265625
102.3; 0 ; 0 ; 0 ; 0 ; 0; 0.049951171875; 0.056396484375; 0.0604248046875; 0.03544921875
102.4; 0 ; 0 ; 0 ; 0 ; 0; 0.06123046875; 0.069287109375; 0.078955078125; 0.038671875
102.5; 0 ; 0 ; 0 ; 0 ; 0; 0.082177734375; 0.095068359375; 0.107958984375; 0.0539794921875
102.6; 0 ; 0 ; 0 ; 0 ; 0; 0.10634765625; 0.10634765625; 0.103125; 0.0475341796875
102.7; 0 ; 0 ; 0 ; 0 ; 0; 0.082177734375; 0.0958740234375; 0.111987304688; 0.040283203125
102.8; 0 ; 0 ; 0 ; 0 ; 0; 0.0708984375; 0.08701171875; 0.103125; 0.033837890625
102.9; 0 ; 0 ; 0 ; 0 ; 0; 0.043505859375; 0.056396484375; 0.066064453125; 0.027392578125
103.0; 0 ; 0 ; 0 ; 0 ; 0; 0.017724609375; 0.024169921875; 0.027392578125; 0.0153076171875
103.1; 0 ; 0 ; 0 ; 0 ; 0; 0.0; 0.0; 0.0; 0.0120849609375
103.2; 0 ; 0 ; 0 ; 0 ; 0; 0.0; 0.0; 0.0; 0.0
103.3; 0 ; 0 ; 0 ; 0 ; 0; 0.0120849609375; 0.0; 0.0; 0.0
103.4; 0 ; 0 ; 0 ; 0 ; 0; 0.0; 0.0; 0.0; 0.02255859375
103.5; 0 ; 0 ; 0 ; 0 ; 0; 0.00966796875; 0.0056396484375; 0.0064453125; 0.0217529296875
103.6; 0 ; 0 ; 0 ; 0 ; 0; 0.017724609375; 0.0120849609375; 0.014501953125; 0.0
103.7; 0 ; 0 ; 0 ; 0 ; 0; 0.027392578125; 0.024169921875; 0.020947265625; 0.027392578125
103.8; 0 ; 0 ; 0 ; 0 ; 0; 0.024169921875; 0.0249755859375; 0.0322265625; 0.0314208984375
103.9; 0 ; 0 ; 0 ; 0 ; 0; 0.037060546875; 0.043505859375; 0.046728515625; 0.0322265625
104.0; 0 ; 0 ; 0 ; 0 ; 0; 0.049951171875; 0.056396484375; 0.066064453125; 0.0378662109375
104.1; 0 ; 0 ; 0 ; 0 ; 0; 0.06767578125; 0.075732421875; 0.085400390625; 0.038671875
104.2; 0 ; 0 ; 0 ; 0 ; 0; 0.10634765625; 0.103125; 0.104736328125; 0.04833984375
104.3; 0 ; 0 ; 0 ; 0 ; 0; 0.09345703125; 0.10634765625; 0.098291015625; 0.040283203125
104.4; 0 ; 0 ; 0 ; 0 ; 0; 0.075732421875; 0.0958740234375; 0.111181640625; 0.0410888671875
104.5; 0 ; 0 ; 0 ; 0 ; 0; 0.062841796875; 0.075732421875; 0.090234375; 0.0281982421875
104.6; 0 ; 0 ; 0 ; 0 ; 0; 0.037060546875; 0.0443115234375; 0.053173828125; 0.020947265625
104.7; 0 ; 0 ; 0 ; 0 ; 0; 0.0; 0.0; 0.0; 0.0120849609375
104.8; 0 ; 0 ; 0 ; 0 ; 0; 0.0; 0.0; 0.0; 0.0
104.9; 0 ; 0 ; 0 ; 0 ; 0; 0.0120849609375; 0.0; 0.0; 0.0
105.0; 0 ; 0 ; 0 ; 0 ; 0; 0.0; 0.0; 0.0; 0.0
105.1; 0 ; 0 ; 0 ; 0 ; 0; 0.011279296875; 0.0; 0.0; 0.0
105.2; 0 ; 0 ; 0 ; 0 ; 0; 0.00966796875; 0.0056396484375; 0.008056640625; 0.0
105.3; 0 ; 0 ; 0 ; 0 ; 0; 0.024169921875; 0.01611328125; 0.011279296875; 0.0185302734375
105.4; 0 ; 0 ; 0 ; 0 ; 0; 0.024169921875; 0.024169921875; 0.024169921875; 0.024169921875
105.5; 0 ; 0 ; 0 ; 0 ; 0; 0.024169921875; 0.0249755859375; 0.0281982421875; 0.0298095703125
105.6; 0 ; 0 ; 0 ; 0 ; 0; 0.04189453125; 0.049951171875; 0.0539794921875; 0.033837890625
105.7; 0 ; 0 ; 0 ; 0 ; 0; 0.0580078125; 0.062841796875; 0.072509765625; 0.037060546875
105.8; 0 ; 0 ; 0 ; 0 ; 0; 0.0708984375; 0.0765380859375; 0.091845703125; 0.0451171875
105.9; 0 ; 0 ; 0 ; 0 ; 0; 0.09990234375; 0.115209960937; 0.111987304688; 0.049951171875
106.0; 0 ; 0 ; 0 ; 0 ; 0; 0.088623046875; 0.10634765625; 0.091845703125; 0.04189453125
106.1; 0 ; 0 ; 0 ; 0 ; 0; 0.075732421875; 0.0894287109375; 0.104736328125; 0.0410888671875
106.2; 0 ; 0 ; 0 ; 0 ; 0; 0.05478515625; 0.062841796875; 0.07734375; 0.0314208984375
106.3; 0 ; 0 ; 0 ; 0 ; 0; 0.030615234375; 0.037060546875; 0.0451171875; 0.0193359375
106.4; 0 ; 0 ; 0 ; 0 ; 0; 0.0; 0.001611328125; 0.001611328125; 0.011279296875
106.5; 0 ; 0 ; 0 ; 0 ; 0; 0.0; 0.0; 0.0; 0.0
106.6; 0 ; 0 ; 0 ; 0 ; 0; 0.017724609375; 0.0; 0.0; 0.0
106.7; 0 ; 0 ; 0 ; 0 ; 0; 0.0; 0.0; 0.0; 0.011279296875
106.8; 0 ; 0 ; 0 ; 0 ; 0; 0.00322265625; 0.0; 0.0; 0.02255859375
106.9; 0 ; 0 ; 0 ; 0 ; 0; 0.01611328125; 0.011279296875; 0.008056640625; 0.0
107.0; 0 ; 0 ; 0 ; 0 ; 0; 0.027392578125; 0.024169921875; 0.0185302734375; 0.024169921875
107.1; 0 ; 0 ; 0 ; 0 ; 0; 0.024169921875; 0.024169921875; 0.027392578125; 0.02900390625
107.2; 0 ; 0 ; 0 ; 0 ; 0; 0.0322265625; 0.0314208984375; 0.033837890625; 0.027392578125
107.3; 0 ; 0 ; 0 ; 0 ; 0; 0.049951171875; 0.05478515625; 0.0580078125; 0.038671875
107.4; 0 ; 0 ; 0 ; 0 ; 0; 0.062841796875; 0.0700927734375; 0.0797607421875; 0.04189453125
107.5; 0 ; 0 ; 0 ; 0 ; 0; 0.0837890625; 0.095068359375; 0.111181640625; 0.0539794921875
107.6; 0 ; 0 ; 0 ; 0 ; 0; 0.10634765625; 0.107958984375; 0.105541992187; 0.0410888671875
107.7; 0 ; 0 ; 0 ; 0 ; 0; 0.0837890625; 0.101513671875; 0.111181640625; 0.040283203125
107.8; 0 ; 0 ; 0 ; 0 ; 0; 0.06767578125; 0.0765380859375; 0.091845703125; 0.033837890625
107.9; 0 ; 0 ; 0 ; 0 ; 0; 0.04833984375; 0.056396484375; 0.066064453125; 0.027392578125
108.0; 0 ; 0 ; 0 ; 0 ; 0; 0.00322265625; 0.004833984375; 0.0064453125; 0.0136962890625
108.1; 0 ; 0 ; 0 ; 0 ; 0; 0.0; 0.0; 0.0; 0.0
108.2; 0 ; 0 ; 0 ; 0 ; 0; 0.011279296875; 0.0; 0.0; 0.0
108.3; 0 ; 0 ; 0 ; 0 ; 0; 0.0; 0.0; 0.0; 0.0
108.4; 0 ; 0 ; 0 ; 0 ; 0; 0.017724609375; 0.0; 0.0; 0.0
108.5; 0 ; 0 ; 0 ; 0 ; 0; 0.00966796875; 0.004833984375; 0.008056640625; 0.0
108.6; 0 ; 0 ; 0 ; 0 ; 0; 0.024169921875; 0.011279296875; 0.004833984375; 0.011279296875
108.7; 0 ; 0 ; 0 ; 0 ; 0; 0.024169921875; 0.024169921875; 0.02578125; 0.030615234375
108.8; 0 ; 0 ; 0 ; 0 ; 0; 0.024169921875; 0.0249755859375; 0.027392578125; 0.0281982421875
108.9; 0 ; 0 ; 0 ; 0 ; 0; 0.037060546875; 0.0378662109375; 0.0410888671875; 0.0322265625
109.0; 0 ; 0 ; 0 ; 0 ; 0; 0.05478515625; 0.06123046875; 0.0708984375; 0.0346435546875
109.1; 0 ; 0 ; 0 ; 0 ; 0; 0.06767578125; 0.075732421875; 0.090234375; 0.0443115234375
109.2; 0 ; 0 ; 0 ; 0 ; 0; 0.09990234375; 0.114404296875; 0.111181640625; 0.05478515625
109.3; 0 ; 0 ; 0 ; 0 ; 0; 0.11279296875; 0.107958984375; 0.101513671875; 0.0410888671875
109.4; 0 ; 0 ; 0 ; 0 ; 0; 0.0837890625; 0.101513671875; 0.117626953125; 0.0443115234375
109.5; 0 ; 0 ; 0 ; 0 ; 0; 0.0580078125; 0.069287109375; 0.0837890625; 0.0322265625
109.6; 0 ; 0 ; 0 ; 0 ; 0; 0.037060546875; 0.0443115234375; 0.053173828125; 0.0265869140625
109.7; 0 ; 0 ; 0 ; 0 ; 0; 0.00322265625; 0.004833984375; 0.0064453125; 0.0120849609375
109.8; 0 ; 0 ; 0 ; 0 ; 0; 0.0; 0.0; 0.0; 0.011279296875
109.9; 0 ; 0 ; 0 ; 0 ; 0; 0.0; 0.0; 0.0; 0.012890625
110.0; 0 ; 0 ; 0 ; 0 ; 0; 0.0; 0.0; 0.0; 0.0
110.1; 0 ; 0 ; 0 ; 0 ; 0; 0.020947265625; 0.0; 0.0; 0.0
110.2; 0 ; 0 ; 0 ; 0 ; 0; 0.00966796875; 0.0056396484375; 0.008056640625; 0.0
110.3; 0 ; 0 ; 0 ; 0 ; 0; 0.024169921875; 0.017724609375; 0.0120849609375; 0.017724609375
110.4; 0 ; 0 ; 0 ; 0 ; 0; 0.02255859375; 0.024169921875; 0.02578125; 0.024169921875
110.5; 0 ; 0 ; 0 ; 0 ; 0; 0.02900390625; 0.0249755859375; 0.027392578125; 0.027392578125
110.6; 0 ; 0 ; 0 ; 0 ; 0; 0.0451171875; 0.04833984375; 0.0515625; 0.033837890625
110.7; 0 ; 0 ; 0 ; 0 ; 0; 0.06123046875; 0.069287109375; 0.078955078125; 0.038671875
110.8; 0 ; 0 ; 0 ; 0 ; 0; 0.07412109375; 0.0829833984375; 0.098291015625; 0.046728515625
110.9; 0 ; 0 ; 0 ; 0 ; 0; 0.107958984375; 0.104736328125; 0.098291015625; 0.05478515625
111.0; 0 ; 0 ; 0 ; 0 ; 0; 0.095068359375; 0.11279296875; 0.098291015625; 0.0443115234375
111.1; 0 ; 0 ; 0 ; 0 ; 0; 0.13857421875; 0.22880859375; 0.162744140625; 0.03544921875
111.2; 0 ; 0 ; 0 ; 0 ; 0; 0.0451171875; 0.062841796875; 0.072509765625; 0.027392578125
111.3; 0 ; 0 ; 0 ; 0 ; 0; 0.0; 0.0; 0.0; 0.0120849609375
111.4; 0 ; 0 ; 0 ; 0 ; 0; 0.0; 0.0; 0.0; 0.0
111.5; 0 ; 0 ; 0 ; 0 ; 0; 0.017724609375; 0.0; 0.0; 0.0
111.6; 0 ; 0 ; 0 ; 0 ; 0; 0.011279296875; 0.0056396484375; 0.008056640625; 0.0
111.7; 0 ; 0 ; 0 ; 0 ; 0; 0.024169921875; 0.0185302734375; 0.014501953125; 0.020947265625
111.8; 0 ; 0 ; 0 ; 0 ; 0; 0.02900390625; 0.030615234375; 0.033837890625; 0.02900390625
111.9; 0 ; 0 ; 0 ; 0 ; 0; 0.037060546875; 0.0378662109375; 0.046728515625; 0.027392578125
112.0; 0 ; 0 ; 0 ; 0 ; 0; 0.04189453125; 0.0443115234375; 0.049951171875; 0.0314208984375
112.1; 0 ; 0 ; 0 ; 0 ; 0; 0.05478515625; 0.06123046875; 0.059619140625; 0.0322265625
112.2; 0 ; 0 ; 0 ; 0 ; 0; 0.069287109375; 0.08701171875; 0.091845703125; 0.033837890625
112.3; 0 ; 0 ; 0 ; 0 ; 0; 0.088623046875; 0.11279296875; 0.091845703125; 0.0346435546875
112.4; 0 ; 0 ; 0 ; 0 ; 0; 0.06767578125; 0.08701171875; 0.0990966796875; 0.0410888671875
112.5; 0 ; 0 ; 0 ; 0 ; 0; 0.062841796875; 0.07412109375; 0.090234375; 0.0346435546875
112.6; 0 ; 0 ; 0 ; 0 ; 0; 0.030615234375; 0.0314208984375; 0.040283203125; 0.0281982421875
112.7; 0 ; 0 ; 0 ; 0 ; 0; 0.024169921875; 0.0249755859375; 0.038671875; 0.027392578125
112.8; 0 ; 0 ; 0 ; 0 ; 0; 0.024169921875; 0.024169921875; 0.027392578125; 0.027392578125
112.9; 0 ; 0 ; 0 ; 0 ; 0; 0.00966796875; 0.00966796875; 0.014501953125; 0.0193359375
113.0; 0 ; 0 ; 0 ; 0 ; 0; 0.0; 0.0; 0.0; 0.0153076171875
113.1; 0 ; 0 ; 0 ; 0 ; 0; 0.0064453125; 0.00322265625; 0.001611328125; 0.0193359375
113.2; 0 ; 0 ; 0 ; 0 ; 0; 0.0193359375; 0.017724609375; 0.014501953125; 0.0
113.3; 0 ; 0 ; 0 ; 0 ; 0; 0.024169921875; 0.02255859375; 0.0153076171875; 0.02255859375
113.4; 0 ; 0 ; 0 ; 0 ; 0; 0.024169921875; 0.0249755859375; 0.0281982421875; 0.027392578125
113.5; 0 ; 0 ; 0 ; 0 ; 0; 0.043505859375; 0.0443115234375; 0.0475341796875; 0.027392578125
113.6; 0 ; 0 ; 0 ; 0 ; 0; 0.04189453125; 0.0443115234375; 0.0507568359375; 0.027392578125
113.7; 0 ; 0 ; 0 ; 0 ; 0; 0.04189453125; 0.049951171875; 0.0539794921875; 0.027392578125
113.8; 0 ; 0 ; 0 ; 0 ; 0; 0.049951171875; 0.056396484375; 0.064453125; 0.0322265625
113.9; 0 ; 0 ; 0 ; 0 ; 0; 0.05478515625; 0.062841796875; 0.0708984375; 0.033837890625
114.0; 0 ; 0 ; 0 ; 0 ; 0; 0.06123046875; 0.0700927734375; 0.078955078125; 0.038671875
114.1; 0 ; 0 ; 0 ; 0 ; 0; 0.075732421875; 0.0894287109375; 0.103125; 0.0378662109375
114.2; 0 ; 0 ; 0 ; 0 ; 0; 0.049951171875; 0.062841796875; 0.072509765625; 0.027392578125
114.3; 0 ; 0 ; 0 ; 0 ; 0; 0.037060546875; 0.0443115234375; 0.0539794921875; 0.033837890625
114.4; 0 ; 0 ; 0 ; 0 ; 0; 0.552685546875; 0.333544921875; 0.219140625; 0.0717041015625
114.5; 0 ; 0 ; 0 ; 0 ; 0; 0.488232421875; 0.398803710938; 0.317431640625; 0.062841796875
114.6; 0 ; 0 ; 0 ; 0 ; 0; 0.172412109375; 0.204638671875; 0.207861328125; 0.038671875
114.7; 0 ; 0 ; 0 ; 0 ; 0; 0.0; 0.0; 0.0; 0.0088623046875
114.8; 0 ; 0 ; 0 ; 0 ; 0; 0.0; 0.0; 0.0; 0.0193359375
114.9; 0 ; 0 ; 0 ; 0 ; 0; 0.0; 0.0; 0.0; 0.024169921875
115.0; 0 ; 0 ; 0 ; 0 ; 0; 0.043505859375; 0.043505859375; 0.046728515625; 0.0
115.1; 0 ; 0 ; 0 ; 0 ; 0; 0.033837890625; 0.13857421875; 0.098291015625; 0.09990234375
115.2; 0 ; 0 ; 0 ; 0 ; 0; 0.262646484375; 0.198193359375; 0.167578125; 0.049951171875
115.3; 0 ; 0 ; 0 ; 0 ; 0; 0.48017578125; 0.373022460937; 0.285205078125; 0.064453125
115.4; 0 ; 0 ; 0 ; 0 ; 0; 0.765380859375; 0.559130859375; 0.414111328125; 0.0845947265625
115.5; 0 ; 0 ; 0 ; 0 ; 0; 1.03608398437; 0.70576171875; 0.523681640625; 0.09345703125
115.6; 0 ; 0 ; 0 ; 0 ; 0; 1.4953125; 1.09086914063; 0.720263671875; 0.105541992187
115.7; 0 ; 0 ; 0 ; 0 ; 0; 1.42119140625; 1.15854492187; 0.79921875; 0.107958984375
115.8; 0 ; 0 ; 0 ; 0 ; 0; 1.06669921875; 0.87333984375; 0.626806640625; 0.088623046875
115.9; 0 ; 0 ; 0 ; 0 ; 0; 0.57685546875; 0.517236328125; 0.402026367188; 0.066064453125
116.0; 0 ; 0 ; 0 ; 0 ; 0; 0.03544921875; 0.088623046875; 0.124877929688; 0.020947265625
116.1; 0 ; 0 ; 0 ; 0 ; 0; 0.024169921875; 0.017724609375; 0.0193359375; 0.02900390625
116.2; 0 ; 0 ; 0 ; 0 ; 0; 0.04189453125; 0.037060546875; 0.038671875; 0.02900390625
116.3; 0 ; 0 ; 0 ; 0 ; 0; 0.095068359375; 0.095068359375; 0.098291015625; 0.03544921875
116.4; 0 ; 0 ; 0 ; 0 ; 0; 0.281982421875; 0.223974609375; 0.163549804687; 0.0539794921875
116.5; 0 ; 0 ; 0 ; 0 ; 0; 0.48017578125; 0.365771484375; 0.272314453125; 0.062841796875
116.6; 0 ; 0 ; 0 ; 0 ; 0; 0.68642578125; 0.515625; 0.369799804688; 0.0781494140625
116.7; 0 ; 0 ; 0 ; 0 ; 0; 0.9861328125; 0.695288085937; 0.517236328125; 0.085400390625
116.8; 0 ; 0 ; 0 ; 0 ; 0; 1.4244140625; 1.01674804687; 0.684814453125; 0.1095703125
116.9; 0 ; 0 ; 0 ; 0 ; 0; 1.53559570312; 1.23588867188; 0.858837890625; 0.104736328125
117.0; 0 ; 0 ; 0 ; 0 ; 0; 1.26650390625; 1.05622558594; 0.762963867188; 0.098291015625
117.1; 0 ; 0 ; 0 ; 0 ; 0; 0.87333984375; 0.746044921875; 0.556713867187; 0.0781494140625
117.2; 0 ; 0 ; 0 ; 0 ; 0; 0.25458984375; 0.275537109375; 0.256201171875; 0.040283203125
117.3; 0 ; 0 ; 0 ; 0 ; 0; 0.02900390625; 0.0378662109375; 0.0580078125; 0.0217529296875
117.4; 0 ; 0 ; 0 ; 0 ; 0; 0.07412109375; 0.069287109375; 0.0708984375; 0.027392578125
117.5; 0 ; 0 ; 0 ; 0 ; 0; 0.127294921875; 0.108764648438; 0.091845703125; 0.037060546875
117.6; 0 ; 0 ; 0 ; 0 ; 0; 0.26103515625; 0.198999023438; 0.167578125; 0.053173828125
117.7; 0 ; 0 ; 0 ; 0 ; 0; 0.41572265625; 0.315014648437; 0.234448242187; 0.0539794921875
117.8; 0 ; 0 ; 0 ; 0 ; 0; 0.668701171875; 0.501123046875; 0.381884765625; 0.0708984375
117.9; 0 ; 0 ; 0 ; 0 ; 0; 0.897509765625; 0.636474609375; 0.465673828125; 0.082177734375
118.0; 0 ; 0 ; 0 ; 0 ; 0; 1.16337890625; 0.823388671875; 0.595385742188; 0.0966796875
118.1; 0 ; 0 ; 0 ; 0 ; 0; 1.60810546875; 1.22299804687; 0.820971679688; 0.111987304688
118.2; 0 ; 0 ; 0 ; 0 ; 0; 1.39702148438; 1.18513183594; 0.853198242188; 0.104736328125
118.3; 0 ; 0 ; 0 ; 0 ; 0; 1.11181640625; 0.95068359375; 0.691259765625; 0.0837890625
118.4; 0 ; 0 ; 0 ; 0 ; 0; 0.31904296875; 0.315014648437; 0.28359375; 0.046728515625
118.5; 0 ; 0 ; 0 ; 0 ; 0; 0.024169921875; 0.046728515625; 0.0708984375; 0.0249755859375
118.6; 0 ; 0 ; 0 ; 0 ; 0; 0.049951171875; 0.053173828125; 0.0539794921875; 0.0314208984375
118.7; 0 ; 0 ; 0 ; 0 ; 0; 0.13212890625; 0.107958984375; 0.090234375; 0.038671875
118.8; 0 ; 0 ; 0 ; 0 ; 0; 0.26748046875; 0.191748046875; 0.156298828125; 0.046728515625
118.9; 0 ; 0 ; 0 ; 0 ; 0; 0.359326171875; 0.288427734375; 0.227197265625; 0.0588134765625
119.0; 0 ; 0 ; 0 ; 0 ; 0; 0.60263671875; 0.469702148437; 0.3544921875; 0.069287109375
119.1; 0 ; 0 ; 0 ; 0 ; 0; 0.8443359375; 0.591357421875; 0.451171875; 0.082177734375
119.2; 0 ; 0 ; 0 ; 0 ; 0; 1.11342773437; 0.791162109375; 0.575244140625; 0.0966796875
119.3; 0 ; 0 ; 0 ; 0 ; 0; 1.5662109375; 1.15854492187; 0.760546875; 0.1095703125
119.4; 0 ; 0 ; 0 ; 0 ; 0; 1.43569335937; 1.20366210938; 0.859643554688; 0.104736328125
NOVA ROTINA -- 2018-07-14 00:58:14

0; 0 ; 0 ; 0 ; 0 ; 0; 0.0, 0.0, 0.0, 0.0
0.1; 0 ; 0 ; 0 ; 0 ; 0; 0.011279296875, 0.0, 0.0, 0.0
0.2; 0 ; 0 ; 0 ; 0 ; 0; 0.01611328125, 0.011279296875, 0.008056640625, 0.0
0.3; 0 ; 0 ; 0 ; 0 ; 0; 0.030615234375, 0.03544921875, 0.030615234375, 0.0378662109375
0.4; 0 ; 0 ; 0 ; 0 ; 0; 0.095068359375, 0.107958984375, 0.105541992187, 0.078955078125
0.5; 0 ; 0 ; 0 ; 0 ; 0; 0.153076171875, 0.159521484375, 0.1740234375, 0.095068359375
0.6; 0 ; 0 ; 0 ; 0 ; 0; 0.207861328125, 0.21591796875, 0.233642578125, 0.131323242187
0.7; 0 ; 0 ; 0 ; 0 ; 0; 0.178857421875, 0.204638671875, 0.223974609375, 0.091845703125
0.8; 0 ; 0 ; 0 ; 0 ; 0; 0.153076171875, 0.173217773438, 0.194970703125, 0.062841796875
0.9; 0 ; 0 ; 0 ; 0 ; 0; 0.09990234375, 0.120849609375, 0.117626953125, 0.027392578125
1.0; 0 ; 0 ; 0 ; 0 ; 0; 0.0, 0.0, 0.0, 0.0
1.1; 0 ; 0 ; 0 ; 0 ; 0; 0.0, 0.0, 0.0, 0.0
1.2; 0 ; 0 ; 0 ; 0 ; 0; 0.0, 0.0, 0.0, 0.0
1.3; 0 ; 0 ; 0 ; 0 ; 0; 0.0, 0.0, 0.0, 0.0
1.4; 0 ; 0 ; 0 ; 0 ; 0; 0.0, 0.0, 0.0, 0.0
1.5; 0 ; 0 ; 0 ; 0 ; 0; 0.001611328125, 0.0, 0.0, 0.0
1.6; 0 ; 0 ; 0 ; 0 ; 0; 0.0, 0.0, 0.0, 0.0024169921875
1.7; 0 ; 0 ; 0 ; 0 ; 0; 0.0, 0.0, 0.0, 0.0
1.8; 0 ; 0 ; 0 ; 0 ; 0; 0.011279296875, 0.0, 0.0, 0.0
1.9; 0 ; 0 ; 0 ; 0 ; 0; 0.00966796875, 0.00322265625, 0.0, 0.0
2.0; 0 ; 0 ; 0 ; 0 ; 0; 0.030615234375, 0.0249755859375, 0.020947265625, 0.0249755859375
2.1; 0 ; 0 ; 0 ; 0 ; 0; 0.08056640625, 0.0894287109375, 0.105541992187, 0.0765380859375
2.2; 0 ; 0 ; 0 ; 0 ; 0; 0.140185546875, 0.140991210938, 0.150659179688, 0.085400390625
2.3; 0 ; 0 ; 0 ; 0 ; 0; 0.165966796875, 0.185302734375, 0.214306640625, 0.1224609375
2.4; 0 ; 0 ; 0 ; 0 ; 0; 0.198193359375, 0.22880859375, 0.23203125, 0.0926513671875
2.5; 0 ; 0 ; 0 ; 0 ; 0; 0.17724609375, 0.198193359375, 0.221557617188, 0.0829833984375
2.6; 0 ; 0 ; 0 ; 0 ; 0; 0.1095703125, 0.115209960937, 0.124072265625, 0.0322265625
2.7; 0 ; 0 ; 0 ; 0 ; 0; 0.0, 0.0, 0.0, 0.0
2.8; 0 ; 0 ; 0 ; 0 ; 0; 0.0, 0.0, 0.0, 0.0
2.9; 0 ; 0 ; 0 ; 0 ; 0; 0.0, 0.0, 0.0, 0.0
3.0; 0 ; 0 ; 0 ; 0 ; 0; 0.0, 0.0, 0.0, 0.0
3.1; 0 ; 0 ; 0 ; 0 ; 0; 0.0, 0.0, 0.0, 0.0
3.2; 0 ; 0 ; 0 ; 100 ; 0; 0.0, 0.0, 0.0, 0.0
3.3; 0 ; 0 ; 100 ; 100 ; 0; 0.0120849609375, 0.0, 0.0, 0.0
3.4; 0 ; 0 ; 100 ; 100 ; 0; 0.0, 0.0, 0.0, 0.0120849609375
3.5; 0 ; 0 ; 100 ; 100 ; 0; 0.00322265625, 0.0, 0.0, 0.014501953125
3.6; 0 ; 0 ; 100 ; 100 ; 0; 0.011279296875, 0.0056396484375, 0.001611328125, 0.0
3.7; 0 ; 0 ; 100 ; 100 ; 0; 0.024169921875, 0.020947265625, 0.0153076171875, 0.020947265625
3.8; 0 ; 0 ; 100 ; 100 ; 0; 0.06123046875, 0.0636474609375, 0.078955078125, 0.0668701171875
3.9; 0 ; 0 ; 100 ; 100 ; 0; 0.11923828125, 0.120849609375, 0.124072265625, 0.07734375
4.0; 0 ; 0 ; 100 ; 100 ; 0; 0.049951171875, 0.0636474609375, 0.072509765625, 0.0024169921875
4.1; 0 ; 0 ; 100 ; 100 ; 0; 0.0, 0.0, 0.0, 0.0
4.2; 0 ; 0 ; 100 ; 100 ; 0; 0.0, 0.0, 0.0, 0.0
4.3; 0 ; 0 ; 100 ; 100 ; 0; 0.0, 0.0, 0.0, 0.0
4.4; 0 ; 0 ; 100 ; 100 ; 0; 0.0, 0.0, 0.0, 0.0
4.5; 0 ; 0 ; 100 ; 100 ; 0; 0.0, 0.0, 0.0, 0.0
4.6; 0 ; 0 ; 100 ; 100 ; 0; 0.0, 0.0, 0.0, 0.0
4.7; 0 ; 0 ; 100 ; 100 ; 0; 0.0064453125, 0.0, 0.0, 0.0
4.8; 0 ; 0 ; 100 ; 100 ; 0; 0.0, 0.0, 0.0, 0.0088623046875
4.9; 0 ; 0 ; 100 ; 100 ; 0; 0.0, 0.0, 0.0, 0.0
5.0; 0 ; 0 ; 100 ; 100 ; 0; 0.020947265625, 0.011279296875, 0.0024169921875, 0.0040283203125
5.1; 0 ; 0 ; 100 ; 100 ; 0; 0.05478515625, 0.056396484375, 0.066064453125, 0.0
5.2; 0 ; 0 ; 100 ; 100 ; 0; 0.062841796875, 0.088623046875, 0.0958740234375, 0.11923828125
5.3; 0 ; 0 ; 100 ; 100 ; 0; 0.14501953125, 0.146630859375, 0.156298828125, 0.0958740234375
5.4; 0 ; 0 ; 100 ; 100 ; 0; 0.20625, 0.211889648437, 0.2255859375, 0.12568359375
5.5; 0 ; 0 ; 100 ; 100 ; 0; 0.17080078125, 0.191748046875, 0.214306640625, 0.0894287109375
5.6; 0 ; 0 ; 100 ; 100 ; 0; 0.17080078125, 0.191748046875, 0.215112304688, 0.078955078125
5.7; 0 ; 0 ; 100 ; 100 ; 0; 0.103125, 0.107958984375, 0.1095703125, 0.0314208984375
5.8; 0 ; 0 ; 100 ; 100 ; 0; 0.0, 0.0, 0.0, 0.0
5.9; 0 ; 0 ; 100 ; 100 ; 0; 0.0, 0.0, 0.0, 0.0
6.0; 0 ; 0 ; 100 ; 100 ; 0; 0.0, 0.0, 0.0, 0.0
6.1; 0 ; 0 ; 100 ; 100 ; 0; 0.0, 0.0, 0.0, 0.0
6.2; 0 ; 0 ; 100 ; 100 ; 0; 0.0, 0.0, 0.0, 0.0
6.3; 0 ; 0 ; 100 ; 100 ; 0; 0.008056640625, 0.0, 0.0, 0.0
6.4; 0 ; 0 ; 100 ; 100 ; 0; 0.0, 0.0, 0.0, 0.0040283203125
6.5; 0 ; 0 ; 100 ; 100 ; 0; 0.0, 0.0, 0.0, 0.0
6.6; 0 ; 0 ; 100 ; 100 ; 0; 0.008056640625, 0.0, 0.0, 0.0
6.7; 0 ; 0 ; 100 ; 100 ; 0; 0.00322265625, 0.0, 0.0, 0.0
6.8; 0 ; 0 ; 100 ; 100 ; 0; 0.024169921875, 0.0185302734375, 0.0120849609375, 0.01611328125
6.9; 0 ; 0 ; 100 ; 100 ; 0; 0.075732421875, 0.082177734375, 0.0966796875, 0.0668701171875
7.0; 0 ; 0 ; 100 ; 100 ; 0; 0.1353515625, 0.133740234375, 0.141796875, 0.0894287109375
7.1; 0 ; 0 ; 100 ; 100 ; 0; 0.17724609375, 0.191748046875, 0.219140625, 0.1224609375
7.2; 0 ; 0 ; 100 ; 100 ; 0; 0.18369140625, 0.211083984375, 0.207861328125, 0.088623046875
7.3; 0 ; 0 ; 100 ; 100 ; 0; 0.1740234375, 0.192553710938, 0.219140625, 0.08056640625
7.4; 0 ; 0 ; 100 ; 100 ; 0; 0.11279296875, 0.115209960937, 0.124072265625, 0.0378662109375
7.5; 0 ; 0 ; 100 ; 100 ; 0; 0.03544921875, 0.046728515625, 0.053173828125, 0.0
7.6; 0 ; 0 ; 100 ; 100 ; 0; 0.0, 0.0, 0.0, 0.0
7.7; 0 ; 0 ; 100 ; 100 ; 0; 0.0, 0.0, 0.0, 0.0
7.8; 0 ; 0 ; 100 ; 100 ; 0; 0.0, 0.0, 0.0, 0.0
7.9; 0 ; 0 ; 100 ; 100 ; 0; 0.0, 0.0, 0.0, 0.0
8.0; 0 ; 0 ; 100 ; 100 ; 0; 0.0, 0.0, 0.0, 0.0
8.1; 0 ; 0 ; 100 ; 100 ; 0; 0.0, 0.0, 0.0, 0.0024169921875
8.2; 0 ; 0 ; 100 ; 100 ; 0; 0.0, 0.0, 0.0, 0.0
8.3; 0 ; 0 ; 100 ; 100 ; 0; 0.008056640625, 0.0, 0.0, 0.0
8.4; 0 ; 0 ; 100 ; 100 ; 0; 0.0, 0.0, 0.0, 0.0
8.5; 0 ; 0 ; 100 ; 100 ; 0; 0.020947265625, 0.011279296875, 0.0024169921875, 0.0056396484375
8.6; 0 ; 0 ; 100 ; 100 ; 0; 0.06767578125, 0.072509765625, 0.085400390625, 0.0
8.7; 0 ; 0 ; 100 ; 100 ; 0; 0.069287109375, 0.101513671875, 0.111987304688, 0.115209960937
8.8; 0 ; 0 ; 0 ; 100 ; 0; 0.15146484375, 0.15791015625, 0.169189453125, 0.098291015625
8.9; 0 ; 0 ; 0 ; 0 ; 0; 0.211083984375, 0.223974609375, 0.240087890625, 0.116821289063
9.0; 0 ; 0 ; 0 ; 0 ; 100; 0.1740234375, 0.198193359375, 0.215112304688, 0.0966796875
9.1; 0 ; 0 ; 0 ; 100 ; 100; 0.15146484375, 0.165966796875, 0.182080078125, 0.059619140625
9.2; 0 ; 0 ; 100 ; 100 ; 100; 0.0837890625, 0.107958984375, 0.0990966796875, 0.024169921875
9.3; 0 ; 0 ; 100 ; 100 ; 100; 0.0, 0.0, 0.0, 0.0
9.4; 0 ; 0 ; 100 ; 100 ; 100; 0.0, 0.0, 0.0, 0.0
9.5; 0 ; 0 ; 100 ; 100 ; 100; 0.0, 0.0, 0.0, 0.0
9.6; 0 ; 0 ; 100 ; 100 ; 100; 0.0, 0.0, 0.0, 0.0
9.7; 0 ; 0 ; 100 ; 100 ; 100; 0.0, 0.0, 0.0, 0.0
9.8; 0 ; 0 ; 100 ; 100 ; 100; 0.011279296875, 0.0, 0.0, 0.0
9.9; 0 ; 0 ; 100 ; 100 ; 100; 0.0, 0.0, 0.0, 0.001611328125
10.0; 0 ; 0 ; 100 ; 100 ; 100; 0.0, 0.0, 0.0, 0.0
10.1; 0 ; 0 ; 100 ; 100 ; 100; 0.011279296875, 0.001611328125, 0.0, 0.0
10.2; 0 ; 0 ; 100 ; 100 ; 100; 0.00966796875, 0.004833984375, 0.001611328125, 0.0
10.3; 0 ; 0 ; 100 ; 100 ; 100; 0.030615234375, 0.0249755859375, 0.020947265625, 0.0249755859375
10.4; 0 ; 0 ; 100 ; 100 ; 100; 0.088623046875, 0.101513671875, 0.1224609375, 0.072509765625
10.5; 0 ; 0 ; 100 ; 100 ; 100; 0.14501953125, 0.146630859375, 0.1611328125, 0.0926513671875
10.6; 0 ; 0 ; 100 ; 100 ; 100; 0.20947265625, 0.217529296875, 0.227197265625, 0.12568359375
10.7; 0 ; 0 ; 100 ; 100 ; 100; 0.191748046875, 0.21591796875, 0.207861328125, 0.0894287109375
10.8; 0 ; 0 ; 100 ; 100 ; 100; 0.17724609375, 0.198193359375, 0.2255859375, 0.08056640625
10.9; 0 ; 0 ; 100 ; 100 ; 100; 0.103125, 0.107958984375, 0.111181640625, 0.0330322265625
11.0; 0 ; 0 ; 100 ; 100 ; 100; 0.0, 0.0, 0.0, 0.0
11.1; 0 ; 0 ; 100 ; 100 ; 100; 0.0, 0.0, 0.0, 0.0
11.2; 0 ; 0 ; 100 ; 100 ; 100; 0.0, 0.0, 0.0, 0.0
11.3; 0 ; 0 ; 100 ; 100 ; 100; 0.0, 0.0, 0.0, 0.0
11.4; 0 ; 0 ; 100 ; 100 ; 100; 0.0, 0.0, 0.0, 0.0
11.5; 0 ; 0 ; 100 ; 100 ; 100; 0.0, 0.0, 0.0, 0.0
11.6; 0 ; 0 ; 100 ; 100 ; 100; 0.008056640625, 0.0, 0.0, 0.0
11.7; 0 ; 0 ; 100 ; 100 ; 100; 0.0, 0.0, 0.0, 0.0
11.8; 0 ; 0 ; 100 ; 100 ; 100; 0.008056640625, 0.0, 0.0, 0.0
11.9; 0 ; 0 ; 100 ; 100 ; 100; 0.00322265625, 0.0, 0.0, 0.0
12.0; 0 ; 0 ; 100 ; 100 ; 100; 0.024169921875, 0.024169921875, 0.0153076171875, 0.020947265625
12.1; 0 ; 0 ; 100 ; 100 ; 100; 0.075732421875, 0.08701171875, 0.103125, 0.0708984375
12.2; 0 ; 0 ; 100 ; 100 ; 100; 0.140185546875, 0.140991210938, 0.149853515625, 0.0926513671875
12.3; 0 ; 0 ; 100 ; 100 ; 100; 0.17724609375, 0.198193359375, 0.2255859375, 0.124072265625
12.4; 0 ; 0 ; 100 ; 100 ; 100; 0.19013671875, 0.218334960937, 0.220751953125, 0.0958740234375
12.5; 0 ; 0 ; 100 ; 100 ; 100; 0.178857421875, 0.204638671875, 0.23203125, 0.088623046875
12.6; 0 ; 0 ; 100 ; 100 ; 100; 0.140185546875, 0.159521484375, 0.175634765625, 0.0539794921875
12.7; 0 ; 0 ; 100 ; 100 ; 100; 0.03544921875, 0.043505859375, 0.049951171875, 0.0
12.8; 0 ; 0 ; 100 ; 100 ; 100; 0.0, 0.0, 0.0, 0.0
12.9; 0 ; 0 ; 100 ; 100 ; 100; 0.0, 0.0, 0.0, 0.0
13.0; 0 ; 0 ; 100 ; 100 ; 100; 0.0, 0.0, 0.0, 0.0
