## File generated by myo_cap software
## Available from github.com/ddantas/myo_cap
## Timestamp: 2018-05-23_20-57-32
##
## EMG capture settings##
# sampleRate: 2000
# channelsPerBoard: 4
# nBoards: 1
# bitsPerSample: 12
##
## Data
## t;ch0;ch1;...;ch(channelsPerBoard * nBoards - 1)
34;133;134
0;0;7;12
0;0;0;0
0;0;0;0
0;0;0;0
4;0;0;0
14;0;0;0
24;16;18;21
44;45;59;88
68;97;126;136
88;131;135;132
121;141;140;135
246;297;253;264
260;336;315;287
220;303;262;255
139;211;227;254
21;65;120;141
0;0;13;33
0;0;0;0
0;0;0;0
0;0;0;1
7;0;0;0
24;18;23;39
37;40;56;84
65;85;128;136
90;126;140;139
121;142;136;136
229;275;255;244
265;351;342;323
234;331;312;263
172;256;255;240
62;125;132;134
0;3;19;32
0;0;0;0
0;0;0;0
0;0;0;0
10;0;1;2
23;7;5;5
44;43;52;75
57;72;109;128
79;124;138;137
111;143;134;141
189;253;250;264
258;341;332;322
255;325;313;280
193;265;260;248
89;147;137;127
0;1;7;6
0;0;0;0
0;0;0;0
0;0;0;0
0;0;0;0
5;0;0;0
21;11;7;5
41;43;58;79
64;85;123;131
86;127;134;137
118;147;137;136
204;256;258;254
266;345;340;336
245;331;315;277
177;259;254;253
67;128;147;137
0;1;17;28
0;0;0;0
0;0;0;0
0;0;0;0
2;0;0;0
25;11;12;18
33;29;39;56
52;63;88;129
78;120;135;131
116;147;133;135
175;225;247;240
255;329;323;298
250;316;296;261
192;261;254;239
108;149;146;137
0;1;11;11
0;0;0;0
0;0;0;0
0;0;0;0
0;0;0;0
14;1;1;0
31;26;31;51
47;64;89;124
75;111;128;127
98;141;139;137
128;160;149;134
252;298;263;252
263;335;322;297
216;298;257;245
134;204;219;238
21;61;123;135
0;0;14;23
0;0;0;0
0;0;0;0
0;0;0;0
16;7;7;12
29;26;32;54
44;54;76;116
66;95;134;135
98;134;139;139
132;159;155;154
249;320;270;254
256;332;309;271
214;295;260;245
130;212;227;246
6;49;102;137
0;0;3;15
0;0;0;0
0;0;0;0
0;0;0;0
12;1;1;10
21;7;5;7
36;35;42;57
59;80;118;134
83;124;140;143
113;139;139;138
220;266;256;247
264;360;365;363
242;320;308;289
175;254;246;253
62;129;137;137
0;1;15;23
0;0;0;0
0;0;0;0
0;0;0;0
3;0;0;0
17;2;0;2
26;22;22;24
52;63;89;129
71;105;136;135
102;144;135;140
154;200;219;246
259;341;330;311
256;352;356;347
199;289;267;262
115;175;178;175
4;18;42;63
0;0;0;0
0;0;0;0
0;0;0;0
0;0;0;1
8;0;0;0
19;11;4;4
37;33;44;57
54;71;101;142
79;122;137;137
111;143;137;135
212;261;247;255
268;345;340;330
249;338;328;297
180;259;250;241
64;129;137;139
0;0;15;23
0;0;0;0
0;0;0;0
0;0;0;0
10;0;1;1
28;13;18;23
36;35;46;64
53;69;104;144
88;123;126;135
113;138;140;139
200;252;244;245
260;337;334;309
245;332;313;269
178;256;255;253
73;134;136;133
0;0;15;20
0;0;0;0
0;0;0;0
0;0;0;0
2;0;0;0
24;11;11;20
31;29;34;47
49;60;87;132
73;109;134;137
110;136;130;135
165;213;229;252
257;332;327;315
250;318;300;265
199;268;256;246
101;157;149;137
1;9;24;39
0;0;0;0
0;0;0;0
0;0;0;0
2;0;0;0
12;1;0;1
33;25;32;45
49;60;87;126
65;95;133;131
95;134;136;128
126;143;134;137
249;304;259;247
261;336;319;290
227;316;281;257
149;227;253;229
28;84;134;126
0;0;11;15
0;0;0;0
0;0;0;0
0;0;0;0
7;0;0;0
21;11;6;3
36;36;40;57
60;79;117;136
81;127;139;130
115;160;152;135
207;263;254;244
256;336;325;308
248;321;300;266
185;259;260;247
80;134;129;135
0;0;6;8
0;0;0;0
0;0;0;0
0;0;0;0
0;0;0;0
16;6;9;10
24;21;23;30
50;59;87;127
66;98;137;139
103;139;131;134
134;161;166;163
254;299;264;260
258;322;297;263
204;278;254;244
128;178;192;207
8;31;67;110
0;0;0;12
0;0;0;0
0;0;0;0
0;0;0;0
7;0;0;0
30;20;27;35
42;45;62;94
58;83;121;130
84;128;140;137
120;144;134;137
219;268;239;257
258;343;330;312
226;322;296;259
159;244;252;235
52;121;136;137
0;1;17;24
0;0;0;0
0;0;0;0
0;0;0;0
7;0;0;0
23;16;13;29
42;45;62;94
60;79;120;138
81;129;136;130
112;142;133;138
206;252;256;254
261;334;321;301
244;313;282;256
182;255;249;241
79;134;131;129
0;1;12;29
0;0;0;0
0;0;0;0
0;0;0;0
2;0;0;0
23;11;13;18
34;29;37;53
52;65;92;130
76;123;133;129
113;146;138;136
177;232;250;234
258;342;338;334
253;321;306;277
194;265;263;246
94;146;134;148
0;2;10;18
0;0;0;0
0;0;0;0
0;0;0;0
1;0;0;0
7;0;0;0
26;20;22;39
41;47;63;96
68;93;127;127
89;129;139;139
120;146;134;135
243;268;255;243
266;322;304;263
225;312;266;254
156;234;253;230
38;105;137;133
0;0;17;25
0;0;0;0
0;0;0;0
0;0;0;0
13;1;2;2
21;7;5;7
34;32;37;50
51;69;92;126
80;122;129;130
115;140;129;135
183;238;255;246
262;345;347;353
252;342;333;310
190;263;261;246
94;149;144;133
0;3;15;19
0;0;0;0
0;0;0;0
0;0;0;0
1;0;0;0
15;5;6;13
26;21;23;32
50;61;84;123
70;101;139;138
98;135;148;133
133;157;151;145
260;308;266;261
261;331;309;273
209;282;257;254
128;188;196;218
10;36;74;130
0;0;0;10
0;0;0;0
0;0;0;0
0;0;0;0
7;0;0;0
25;19;22;40
39;42;58;91
61;88;127;139
90;126;136;130
123;141;133;132
229;281;252;245
268;332;324;303
231;325;297;265
157;248;245;249
39;113;130;128
0;1;16;31
0;0;0;0
0;0;0;0
0;0;0;0
5;0;0;0
27;15;20;28
43;50;71;109
65;94;132;137
84;128;147;142
121;150;139;130
225;273;243;253
259;349;337;319
230;327;305;266
171;256;252;239
51;121;143;138
0;1;13;30
0;0;0;0
0;0;0;0
0;0;0;0
4;0;0;0
24;13;13;23
43;45;62;96
58;79;122;140
83;129;137;137
110;159;149;137
200;253;258;254
261;355;356;357
243;324;316;295
181;257;254;256
75;128;135;133
0;0;10;12
0;0;0;0
0;0;0;0
0;0;0;0
1;0;0;0
18;2;2;1
37;31;39;53
55;70;102;122
74;113;139;126
110;135;133;132
150;188;196;210
257;337;315;283
255;327;313;274
207;280;264;252
123;174;178;175
6;19;43;62
0;0;0;0
0;0;0;0
0;0;0;0
1;0;0;1
10;0;0;1
22;11;12;13
39;39;54;76
59;78;119;133
88;129;134;139
120;152;141;140
246;298;259;250
266;333;321;295
228;318;287;260
149;229;249;223
31;90;135;131
0;0;14;22
0;0;0;0
0;0;0;0
0;0;0;0
5;0;0;0
23;15;14;29
41;46;62;99
59;81;122;139
82;129;137;137
114;143;134;134
208;254;264;239
259;335;321;301
250;321;298;265
189;254;259;252
73;131;136;137
0;2;11;16
0;0;0;0
0;0;0;0
0;0;0;0
10;0;1;1
23;12;16;18
31;35;44;64
53;68;102;141
84;124;134;131
115;155;144;139
199;260;254;246
261;337;329;315
250;343;331;297
175;254;256;240
74;134;138;139
0;1;9;19
0;0;0;0
0;0;0;0
0;0;0;0
2;0;0;1
18;8;8;12
33;34;37;62
46;58;86;125
72;111;128;134
110;133;133;133
142;173;181;189
256;331;305;269
261;328;316;277
204;280;258;258
126;174;171;163
1;16;32;47
0;0;0;1
0;0;0;0
0;0;0;0
0;0;0;0
14;1;3;1
27;23;32;41
49;57;86;127
64;92;131;136
94;133;132;137
124;148;135;139
245;277;251;250
265;331;317;294
230;321;289;262
161;249;250;252
37;108;144;135
0;0;12;21
0;0;0;0
0;0;0;0
0;0;0;0
5;0;0;0
21;7;3;2
36;30;35;47
57;73;110;125
87;123;131;133
114;137;138;138
192;253;246;260
257;340;325;303
250;345;332;308
183;262;261;248
81;136;134;144
0;5;13;30
0;0;0;0
0;0;0;0
0;0;0;0
1;0;0;0
14;6;5;11
28;21;21;30
52;62;87;128
69;101;141;134
103;146;131;154
132;189;190;198
259;324;304;272
261;322;304;263
202;274;251;249
126;170;178;188
0;11;31;55
0;0;0;0
0;0;0;0
0;0;0;0
0;0;0;0
10;1;1;2
21;9;5;5
36;36;39;55
61;80;116;130
80;125;146;139
118;144;132;154
205;256;253;252
261;338;339;321
253;314;305;265
185;256;259;235
75;134;136;142
0;0;14;23
0;0;0;0
0;0;0;0
0;0;0;0
2;0;0;0
20;9;10;13
37;35;45;73
56;73;111;129
81;122;135;141
116;138;133;136
166;210;230;250
258;324;314;293
250;318;297;258
196;262;252;254
109;146;137;128
0;0;5;1
0;0;0;0
0;0;0;0
0;0;0;0
1;0;0;0
5;0;0;0
22;17;18;33
45;47;68;104
60;83;121;126
90;132;135;136
118;143;139;138
226;274;249;253
264;349;339;321
228;330;306;263
164;254;248;259
55;123;139;134
0;1;17;29
0;0;0;0
0;0;0;0
0;0;0;0
5;0;0;0
28;15;19;28
44;49;65;101
60;83;121;130
90;131;136;130
123;139;133;137
209;255;250;256
262;355;353;351
241;317;307;274
178;258;257;242
59;128;137;142
0;2;22;38
0;0;0;1
0;0;0;0
0;0;0;0
10;0;0;1
20;5;2;3
31;29;31;41
51;63;87;124
80;119;134;136
110;154;139;137
167;228;246;254
260;339;334;328
255;324;313;280
197;264;253;238
114;156;154;139
5;8;23;33
0;0;0;0
0;0;0;0
0;0;0;0
0;0;0;0
15;4;4;4
22;20;20;22
47;54;78;117
70;100;140;135
93;133;137;139
124;154;143;137
250;314;269;262
260;335;321;291
218;302;268;251
143;211;244;236
18;65;126;136
0;0;5;16
0;0;0;0
0;0;0;0
0;0;0;0
6;0;0;0
21;11;6;3
32;31;35;49
50;66;94;127
75;114;127;137
107;156;137;137
198;256;250;264
257;338;326;311
253;317;302;268
182;251;251;252
86;133;126;133
0;0;8;14
0;0;0;0
0;0;0;0
0;0;0;0
1;0;0;1
16;6;2;6
28;20;21;23
43;50;66;95
62;86;127;131
94;133;133;134
126;154;144;135
255;297;263;252
265;357;352;348
218;313;289;255
145;227;250;225
28;86;134;135
0;0;12;19
0;0;0;0
0;0;0;0
1;0;0;0
6;0;0;0
27;16;19;28
46;51;72;110
62;89;130;133
84;132;131;137
121;150;135;134
226;282;248;242
270;345;337;321
246;314;293;260
175;254;256;235
60;126;130;136
0;1;10;20
0;0;0;0
0;0;0;0
0;0;0;0
5;0;0;0
24;15;13;26
36;39;44;64
60;82;118;134
87;130;133;131
117;134;128;135
204;256;245;255
260;335;323;295
251;321;300;264
188;254;260;253
73;128;131;130
0;1;6;5
0;0;0;0
0;0;0;0
0;0;0;0
3;0;0;0
23;9;11;14
37;37;48;69
50;62;93;129
72;109;134;137
109;133;129;136
157;194;211;232
259;340;323;305
257;354;355;343
198;289;267;262
120;176;182;176
5;19;45;65
0;0;0;0
0;0;0;0
0;0;0;0
1;0;0;0
11;0;1;0
22;13;15;17
46;48;66;108
60;85;122;130
87;127;142;139
122;148;138;134
254;283;266;263
269;328;323;305
228;313;282;256
148;220;241;243
23;75;128;127
0;0;7;12
0;0;0;0
0;0;0;0
0;0;0;0
5;0;0;0
27;15;19;28
44;45;67;101
62;82;121;131
86;128;135;137
118;149;138;136
229;279;258;253
262;350;343;331
234;333;318;277
172;254;252;228
61;129;138;136
0;1;18;28
0;0;0;0
0;0;0;0
0;0;0;0
4;0;0;0
24;13;18;23
40;42;58;87
66;85;121;128
89;127;134;136
116;157;143;137
198;256;265;258
258;333;325;305
250;338;328;292
185;262;259;251
74;136;134;132
0;4;17;24
0;0;0;0
0;0;0;0
0;0;0;0
3;0;0;0
16;9;7;14
33;33;47;73
49;60;91;128
69;105;139;137
107;132;153;136
151;185;200;219
259;335;318;288
261;336;329;304
206;281;250;252
125;173;177;171
10;25;52;79
0;0;0;1
0;0;0;0
0;0;0;0
0;0;0;0
11;0;0;1
22;11;13;15
42;43;55;80
60;82;121;138
93;135;134;133
124;146;135;137
250;286;261;255
267;329;317;293
227;315;281;260
154;236;255;245
31;89;137;136
0;0;12;21
0;0;0;0
0;0;0;0
0;0;0;0
6;0;0;0
23;16;14;33
41;45;60;99
55;77;117;139
88;129;139;132
113;136;141;133
217;261;250;249
266;330;323;302
233;325;296;254
168;250;253;252
62;130;134;136
0;2;20;40
0;0;0;1
0;0;0;0
0;0;0;0
10;0;1;1
26;14;22;36
34;37;47;76
54;72;103;139
79;121;137;133
116;140;134;135
214;256;252;256
267;348;348;350
249;338;330;315
176;253;256;242
74;125;137;129
0;0;9;9
0;0;0;0
0;0;0;0
0;0;0;0
2;0;0;1
15;1;2;2
23;18;18;23
43;48;65;94
70;99;134;130
96;134;135;147
124;138;136;136
244;297;257;249
259;333;313;279
225;308;268;249
147;224;249;248
21;74;133;141
0;0;10;21
0;0;0;0
0;0;0;0
0;0;0;1
5;0;0;0
21;10;5;4
34;33;37;51
54;70;95;130
74;118;127;138
113;147;131;143
193;254;229;258
263;345;336;336
250;345;332;317
181;260;252;246
81;139;135;133
0;1;18;27
0;0;0;0
0;0;0;0
0;0;0;0
2;0;0;0
20;8;10;14
30;23;31;39
49;55;82;122
75;111;128;133
113;135;131;134
157;192;206;221
259;340;324;302
260;335;328;310
204;279;258;256
126;169;170;166
8;16;42;66
0;0;0;1
0;0;0;0
0;0;0;0
0;0;0;0
11;0;0;0
22;15;15;18
46;50;70;102
67;98;133;136
91;136;141;138
124;154;145;135
257;293;261;254
262;355;350;336
222;318;297;267
138;221;245;250
18;71;125;126
0;0;6;14
0;0;0;0
0;0;0;0
0;0;0;0
5;0;0;0
18;7;4;2
34;30;36;45
52;65;89;127
74;112;137;126
111;137;134;133
171;220;246;245
261;330;326;309
251;315;298;260
196;266;259;253
98;159;156;138
2;14;37;47
0;0;0;0
0;0;0;0
0;0;0;0
1;0;0;2
17;6;6;6
26;21;21;24
48;57;79;115
62;92;126;135
99;133;137;135
125;139;137;139
249;287;250;250
262;330;304;268
225;304;265;248
141;210;233;250
18;67;124;135
0;0;12;27
0;0;0;0
0;0;0;0
1;0;0;1
11;0;0;1
21;10;6;11
46;47;62;93
63;86;121;127
93;131;132;133
125;143;134;136
226;277;247;249
263;357;352;339
226;323;302;265
157;245;245;250
39;112;142;134
0;1;19;32
0;0;0;0
0;0;0;0
0;0;0;0
10;0;1;2
21;10;6;4
36;35;40;56
63;80;119;131
82;127;141;138
118;148;135;145
212;255;266;261
263;359;367;370
250;328;328;311
193;260;258;256
82;132;137;136
0;3;15;25
0;0;0;0
0;0;0;0
0;0;0;0
1;0;0;0
15;2;0;1
28;21;21;23
44;49;65;96
65;91;128;138
91;131;136;139
129;156;147;132
251;292;254;255
255;323;299;265
221;301;264;255
134;204;223;241
16;52;103;137
0;0;3;7
0;0;0;0
0;0;0;0
0;0;0;0
11;1;1;6
31;20;27;38
46;53;75;117
67;98;134;139
91;131;138;134
123;149;137;140
248;285;258;258
271;334;328;312
232;323;295;266
161;247;246;254
41;113;133;136
0;1;18;28
0;0;0;0
0;0;0;0
1;0;0;0
6;0;0;0
16;9;5;3
38;40;49;71
52;70;101;131
81;123;134;146
115;142;135;139
190;251;243;250
264;349;344;342
250;341;330;302
186;263;262;255
89;149;144;130
0;3;14;16
0;0;0;0
0;0;0;0
0;0;0;0
1;0;0;0
16;6;6;12
27;21;22;32
52;60;87;126
69;101;132;139
108;131;138;135
142;181;192;202
254;316;285;258
261;348;327;289
211;297;264;254
127;184;194;202
0;23;53;83
0;0;1;9
0;0;0;0
0;0;0;0
0;0;0;0
13;1;4;2
28;23;28;38
47;55;79;122
70;102;128;138
101;139;133;131
126;157;148;135
254;293;263;254
261;354;349;332
221;317;294;260
137;213;241;228
15;64;121;132
0;0;13;28
0;0;0;0
0;0;0;0
0;0;0;0
15;1;2;4
30;24;32;45
47;57;80;128
62;90;130;138
96;134;133;135
126;152;135;141
251;293;266;258
264;350;344;333
218;313;286;249
142;222;245;244
22;81;133;139
0;0;15;23
0;0;0;0
0;0;0;0
0;0;0;0
6;0;0;0
25;17;19;32
42;48;66;114
68;93;127;130
95;130;141;135
122;143;131;153
226;273;242;256
264;335;315;282
236;325;295;251
174;254;248;255
61;122;126;134
0;0;9;12
0;0;0;0
0;0;0;0
0;0;0;0
5;0;0;0
17;6;4;3
27;21;23;33
51;62;87;125
70;100;135;144
102;142;137;136
158;206;228;256
260;343;340;328
255;326;319;293
202;273;255;246
120;160;163;154
2;9;29;45
0;0;0;0
0;0;0;0
0;0;0;0
0;0;0;0
8;0;0;0
28;23;27;38
42;48;66;98
59;84;121;127
85;128;135;141
119;147;131;144
230;279;249;252
265;353;341;321
237;339;324;293
167;251;256;228
55;120;138;139
0;0;13;22
0;0;0;0
0;0;0;0
0;0;0;0
5;0;0;0
16;5;5;2
33;29;31;41
48;62;87;122
78;118;134;136
102;149;136;138
168;226;250;259
256;329;321;301
253;318;300;263
201;269;253;241
108;166;158;138
2;13;32;46
0;0;0;0
0;0;0;0
0;0;0;0
2;0;0;1
11;1;1;1
23;18;19;21
47;55;74;117
68;103;134;145
106;142;138;135
139;166;165;152
256;305;268;261
261;324;303;265
210;283;257;253
127;188;195;216
8;37;73;128
0;0;0;12
0;0;0;0
0;0;0;0
0;0;0;0
6;0;0;0
19;9;6;3
41;42;55;79
57;75;109;129
81;122;145;132
117;142;131;151
205;259;254;257
263;338;337;321
256;331;319;291
199;264;258;247
84;132;136;137
0;5;25;40
0;0;0;0
0;0;0;0
0;0;0;0
4;0;0;2
20;8;11;22
37;35;48;73
46;61;92;134
69;105;137;139
107;132;133;130
153;191;202;222
260;345;330;318
255;327;315;287
207;283;261;258
123;166;169;173
2;14;40;63
0;0;0;0
0;0;0;0
0;0;0;0
2;0;0;0
12;0;1;0
22;15;10;16
49;53;71;108
70;102;137;130
97;131;141;138
129;146;138;133
251;282;258;257
264;333;316;299
227;309;270;253
137;208;221;245
14;58;109;132
0;0;6;18
0;0;0;0
0;0;0;0
0;0;0;0
12;1;2;8
21;12;6;6
42;46;58;92
59;80;122;141
89;130;130;132
118;134;130;139
212;254;252;262
262;355;352;347
241;317;304;278
180;258;249;236
69;130;149;141
0;0;12;21
0;0;0;0
0;0;0;0
0;0;0;0
3;0;0;0
20;11;12;23
34;30;39;58
53;67;97;136
75;115;126;132
106;154;135;141
185;249;255;245
256;332;324;308
252;318;303;268
186;254;256;255
88;138;137;135
0;0;13;23
0;0;0;0
0;0;0;0
0;0;0;0
0;0;0;0
18;6;9;12
28;21;24;32
51;61;87;128
70;99;133;140
102;139;134;138
128;165;163;161
251;301;263;256
259;330;315;291
219;297;261;252
138;196;206;217
17;50;98;133
0;0;9;26
0;0;0;0
0;0;0;0
0;0;0;0
7;0;0;2
21;13;12;15
43;46;65;102
62;84;120;131
85;132;138;135
120;155;143;139
245;280;253;250
267;330;320;299
232;323;294;255
162;247;254;251
39;108;145;139
0;1;19;33
0;0;0;0
0;0;0;0
0;0;0;0
11;1;1;2
32;23;32;42
43;48;67;107
68;94;131;137
90;130;136;138
120;148;134;137
244;273;249;246
264;348;334;313
233;330;309;265
156;245;245;253
36;105;135;129
0;0;13;21
0;0;0;0
0;0;0;0
0;0;0;0
5;0;0;1
20;5;4;4
41;41;52;75
57;72;109;131
81;124;134;137
117;153;141;135
200;257;250;253
261;340;337;321
252;345;334;316
195;270;258;258
86;136;139;138
0;0;13;21
0;0;0;0
0;0;0;0
0;0;0;0
1;0;0;0
19;8;9;12
33;32;41;64
46;61;84;131
68;103;132;141
107;131;138;133
142;180;193;196
255;312;286;257
259;342;323;285
206;294;264;253
129;181;189;189
5;29;55;88
0;0;0;4
0;0;0;0
0;0;0;0
0;0;0;0
6;0;0;0
23;17;17;33
42;48;66;108
59;86;121;127
83;130;135;141
118;148;137;138
234;292;261;256
266;339;323;298
245;314;290;258
168;249;243;249
55;123;137;130
0;1;13;33
0;0;0;0
0;0;0;0
0;0;0;0
5;0;0;0
21;12;13;24
43;45;65;98
57;77;120;138
83;122;140;141
114;137;137;135
209;255;258;261
261;355;355;358
242;322;311;282
177;254;254;233
66;129;147;135
0;1;16;33
0;0;0;0
0;0;0;0
0;0;0;0
3;0;0;0
22;9;11;21
31;29;37;53
50;62;89;133
81;119;134;132
106;154;133;141
171;234;254;233
258;332;323;302
249;348;337;308
205;287;256;247
108;177;174;159
6;24;52;79
0;0;0;2
0;0;0;0
0;0;0;0
2;0;0;2
17;8;9;12
28;21;27;39
45;50;73;108
77;107;130;136
103;139;135;145
140;174;183;197
253;309;276;252
256;325;298;265
203;273;247;230
127;171;172;166
5;18;38;58
0;0;0;1
0;0;0;0
0;0;0;0
0;0;0;0
11;1;1;1
21;8;7;7
43;43;57;84
57;76;114;131
86;127;143;136
116;151;139;134
190;251;236;238
256;334;324;305
244;330;310;265
177;257;254;253
73;132;129;140
0;0;13;20
0;0;0;0
0;0;0;0
0;0;0;0
2;0;0;0
20;8;12;13
30;26;31;41
47;56;84;119
74;111;129;129
112;133;128;139
160;198;210;245
259;341;325;313
259;337;332;318
203;277;258;257
125;167;170;168
5;14;38;63
0;0;0;0
0;0;0;0
0;0;0;0
1;0;0;0
13;0;0;0
28;23;28;42
49;57;80;120
71;105;130;130
98;134;147;137
127;147;139;134
249;290;251;254
263;329;302;262
219;301;258;241
141;208;233;251
14;56;114;128
0;0;16;27
0;0;0;0
0;0;0;0
1;0;0;1
15;5;2;6
24;20;21;23
42;50;65;94
70;99;134;130
95;136;135;138
120;165;148;137
239;282;255;258
259;347;329;300
219;311;279;251
152;234;255;246
29;89;142;139
0;0;18;28
0;0;0;0
0;0;0;0
0;0;0;0
5;0;0;0
23;14;18;32
42;47;67;104
60;82;120;131
83;128;134;137
115;146;136;137
226;273;249;253
260;349;338;317
228;325;304;265
168;252;247;255
50;120;133;140
0;3;14;21
0;0;0;0
0;0;0;0
0;0;0;0
11;0;1;1
18;7;5;3
32;31;36;48
51;64;92;133
77;119;136;131
112;142;135;139
169;221;248;238
253;351;354;345
254;328;330;312
199;269;259;255
101;156;149;132
1;9;23;30
0;0;0;1
0;0;0;0
0;0;0;0
2;0;0;1
11;1;0;2
30;25;30;45
44;53;74;109
63;91;129;137
98;132;133;135
123;159;155;145
250;318;276;257
265;344;333;311
218;306;269;260
137;211;234;228
19;67;124;130
0;0;5;7
0;0;0;0
0;0;0;0
0;0;0;0
11;1;1;2
28;16;19;28
40;39;54;85
58;78;118;130
85;130;139;136
120;148;138;134
233;284;260;256
269;335;332;315
238;335;315;280
175;260;251;239
53;127;141;140
0;1;15;21
0;0;0;0
0;0;0;0
0;0;0;0
9;0;1;5
25;16;17;33
35;37;47;70
59;81;120;140
85;131;135;136
114;144;131;137
208;257;259;254
264;358;365;369
248;328;327;308
189;257;253;253
76;131;139;138
0;1;15;23
0;0;0;0
0;0;0;0
0;0;0;0
3;0;0;0
15;3;0;2
28;21;22;24
55;62;89;128
71;105;136;142
99;142;134;137
136;172;172;169
255;309;272;251
258;348;323;289
204;289;259;246
130;192;202;215
13;37;75;122
0;0;0;15
0;0;0;0
0;0;0;0
2;0;0;1
11;0;0;1
33;25;35;47
49;61;87;123
67;98;135;127
105;139;131;135
132;154;147;141
252;317;266;254
256;330;303;261
214;293;256;255
137;204;215;227
15;53;98;129
0;0;6;14
0;0;0;0
0;0;0;0
0;0;0;0
6;0;0;0
28;16;22;32
47;51;71;117
71;99;134;139
95;134;137;136
123;153;138;136
240;274;251;265
265;350;340;323
234;335;318;282
171;256;249;235
48;120;136;133
0;1;15;23
0;0;0;0
0;0;0;0
0;0;0;0
13;1;1;1
21;9;5;5
33;31;36;52
53;66;94;129
73;112;137;139
103;153;142;137
172;238;255;242
256;338;336;334
253;324;313;287
193;266;260;255
93;152;146;138
1;10;29;43
0;0;0;0
0;0;0;0
0;0;0;0
3;0;0;1
20;8;10;13
31;23;28;40
46;55;76;117
77;111;127;134
101;145;134;134
149;196;213;245
258;346;339;334
255;328;323;301
209;285;259;246
123;165;165;149
6;17;38;60
0;0;0;0
0;0;0;0
0;0;0;0
2;0;0;0
6;0;0;0
26;19;21;35
39;43;58;89
65;90;130;131
85;131;138;131
119;150;141;140
236;294;264;255
262;353;351;334
236;336;322;293
163;250;257;254
51;120;135;146
0;1;14;33
0;0;0;0
0;0;0;0
0;0;0;0
5;0;0;0
18;5;3;2
34;29;35;43
51;63;87;124
81;119;137;132
107;148;136;139
173;228;254;236
255;328;320;300
256;320;300;261
202;271;256;249
110;165;163;150
4;15;39;55
0;0;0;0
0;0;0;0
0;0;0;0
3;0;0;1
21;8;9;12
27;22;24;33
52;63;92;126
72;105;134;131
107;132;138;134
140;169;173;182
259;315;283;257
264;328;309;270
212;289;256;264
134;181;192;202
1;20;46;80
0;0;0;3
0;0;0;0
0;0;0;0
0;0;0;0
5;0;0;0
21;7;6;3
41;40;54;76
58;81;120;144
81;123;136;140
115;142;135;140
193;250;262;246
261;337;333;314
252;313;296;261
186;257;254;254
83;134;149;135
0;0;14;20
0;0;0;0
0;0;0;0
0;0;0;0
1;0;0;0
17;6;9;12
34;31;40;57
51;64;94;137
68;105;137;134
106;151;140;134
135;183;181;183
265;330;304;269
259;324;307;265
206;274;253;243
130;178;188;184
12;34;62;105
0;0;0;4
0;0;0;0
0;0;0;0
0;0;0;0
13;0;0;0
28;23;28;44
47;55;78;127
70;104;133;131
95;134;144;137
130;157;150;145
250;291;253;254
258;330;305;265
219;300;257;247
137;198;216;238
11;48;98;145
0;0;10;28
0;0;0;0
0;0;0;0
0;0;0;0
5;0;0;0
22;14;16;31
42;46;64;103
59;83;122;132
89;129;137;132
120;151;140;138
243;279;251;253
264;349;340;323
226;324;297;256
162;254;256;236
39;115;136;133
0;2;16;33
0;0;0;0
0;0;0;0
0;0;0;0
6;0;0;1
19;8;4;3
39;37;48;74
61;80;119;138
81;121;145;141
111;133;152;136
181;235;254;241
257;333;328;301
247;339;323;279
188;262;257;243
89;146;137;126
0;3;13;14
0;0;0;0
0;0;0;0
0;0;0;0
0;0;0;0
14;0;0;0
24;16;17;21
39;40;56;82
60;81;120;138
95;126;136;136
125;148;139;128
244;296;253;248
260;332;314;278
221;307;263;254
141;213;227;245
20;68;119;135
0;0;11;27
0;0;0;0
0;0;0;0
0;0;0;0
11;1;1;6
26;17;22;39
40;44;62;92
59;83;119;137
83;128;133;137
117;147;135;144
236;288;253;252
269;333;324;309
227;318;283;256
166;253;251;260
45;118;138;140
0;0;16;23
0;0;0;0
0;0;0;0
0;0;0;0
5;0;0;0
20;6;4;2
31;28;32;40
55;71;100;120
81;120;137;141
110;159;145;137
191;251;240;245
257;339;327;306
249;318;304;269
188;255;246;253
90;143;134;139
0;1;14;23
0;0;0;0
0;0;0;0
0;0;0;0
3;0;0;1
20;6;10;6
28;19;24;33
49;60;84;123
66;99;138;135
93;133;139;134
131;159;157;145
259;308;273;252
256;327;310;272
222;304;268;258
132;217;241;225
8;54;112;127
0;0;15;24
0;0;0;0
0;0;0;0
0;0;0;0
12;0;1;1
33;25;32;45
47;60;85;126
72;106;133;136
98;137;138;139
128;148;134;150
249;312;261;250
264;345;332;318
221;310;272;250
142;220;245;247
17;66;126;126
0;0;16;28
0;0;0;0
0;0;0;0
2;0;0;0
10;0;1;0
26;20;21;38
42;45;64;95
69;95;128;132
91;131;138;131
122;144;132;154
245;277;251;255
264;348;338;318
226;320;292;251
158;247;252;251
35;105;142;131
0;0;13;23
0;0;0;0
0;0;0;0
0;0;0;0
6;0;0;1
18;5;5;5
40;40;49;72
55;73;103;136
78;122;135;133
111;154;138;132
197;258;252;252
263;341;341;323
255;321;310;277
191;259;256;241
83;132;151;135
0;0;15;20
0;0;0;0
0;0;0;0
0;0;0;0
1;0;0;0
18;5;7;14
25;21;27;33
50;61;87;127
67;98;139;142
100;141;135;139
135;166;165;153
255;305;265;258
258;323;290;255
206;275;250;243
127;192;203;214
6;38;78;129
0;0;8;22
0;0;0;0
0;0;0;0
0;0;0;0
10;0;1;0
29;22;28;44
47;55;79;126
70;102;130;147
93;132;137;133
121;146;132;146
248;307;255;255
257;334;313;282
220;305;263;248
141;209;238;221
18;62;122;134
0;0;18;31
0;0;0;0
0;0;0;0
0;0;0;0
16;3;3;5
31;25;32;47
49;59;84;125
63;93;127;135
97;131;143;134
127;142;131;152
249;301;259;254
261;338;321;294
236;328;296;254
163;246;247;253
41;110;130;131
0;0;6;17
0;0;0;0
0;0;0;0
0;0;0;0
5;0;0;0
28;17;21;31
47;50;72;119
62;85;130;142
85;130;140;132
119;151;142;129
240;270;249;253
267;323;304;270
240;303;266;257
172;250;245;246
53;120;133;143
0;3;14;21
0;0;0;0
0;0;0;0
0;0;0;0
12;1;1;1
20;7;6;4
40;40;53;73
56;73;107;131
81;124;136;139
109;165;150;138
193;260;248;260
258;352;349;341
253;333;325;312
194;262;261;242
97;144;138;133
1;3;12;25
0;0;0;0
0;0;0;0
0;0;0;0
2;0;0;1
15;1;0;0
32;27;32;45
50;64;89;127
66;98;139;136
97;134;134;139
130;158;148;133
251;295;260;244
259;327;311;268
225;301;263;243
142;210;235;218
19;63;118;128
0;0;10;17
0;0;0;0
0;0;0;0
0;0;0;0
10;1;0;0
23;15;17;18
48;54;77;117
72;103;133;136
93;133;148;137
126;147;137;137
256;288;258;254
262;329;303;262
227;308;271;256
145;215;249;246
18;61;119;136
0;0;10;28
0;0;0;0
0;0;0;0
0;0;0;0
11;0;0;0
25;15;19;19
49;53;75;110
65;92;131;137
96;135;142;137
126;141;134;134
248;301;256;251
266;345;332;318
226;314;279;254
147;220;247;245
28;82;134;137
0;0;11;30
0;0;0;0
0;0;0;0
0;0;0;0
15;1;1;9
21;12;6;13
43;45;62;98
62;82;120;138
86;128;135;137
120;148;132;145
234;291;257;254
271;338;332;321
234;326;300;260
165;247;257;248
50;118;136;131
0;1;14;17
0;0;0;0
0;0;0;0
0;0;0;0
5;0;0;0
21;7;4;3
30;28;32;43
47;59;83;121
77;118;134;135
115;139;132;138
163;209;228;251
257;331;326;317
250;321;304;268
196;261;258;229
116;151;153;135
2;4;16;22
0;0;0;0
0;0;0;0
0;0;0;0
2;0;0;1
10;0;0;0
28;24;28;44
44;49;71;104
64;89;129;142
96;134;131;150
124;146;133;135
247;301;256;248
260;337;322;290
226;312;272;244
145;222;243;228
22;74;129;132
0;0;14;20
0;0;0;0
0;0;0;0
0;0;0;1
6;0;0;0
26;16;20;32
42;50;66;110
59;84;124;131
90;127;133;132
118;145;135;139
243;274;258;253
268;331;317;306
235;328;299;259
169;250;260;248
45;109;147;132
0;0;14;33
0;0;0;0
0;0;0;0
0;0;0;0
5;0;0;0
27;15;19;28
42;47;64;98
58;79;117;134
89;129;133;133
115;136;148;135
217;259;245;263
262;354;341;337
235;339;323;288
171;251;254;251
64;125;136;129
0;1;14;26
0;0;0;0
0;0;0;0
0;0;0;0
9;0;0;1
15;3;3;1
31;22;26;32
49;56;77;117
71;98;134;139
107;129;131;136
142;181;191;207
256;336;316;293
259;356;355;349
200;287;264;256
124;181;196;210
11;28;68;112
0;0;0;12
0;0;0;0
0;0;0;0
3;0;0;1
19;8;9;11
35;32;48;64
46;60;89;131
68;102;137;137
109;132;138;139
145;186;199;216
252;331;310;278
264;344;338;314
216;297;268;258
128;185;196;204
5;22;56;92
0;0;0;8
0;0;0;0
0;0;0;0
0;0;0;0
7;0;0;0
26;19;21;33
35;43;57;86
56;80;118;134
82;129;136;137
112;144;135;132
228;278;250;246
269;334;328;306
239;335;313;275
175;262;254;247
63;128;137;131
0;0;5;11
0;0;0;0
0;0;0;0
0;0;0;0
8;0;1;1
28;17;19;29
34;31;43;68
56;76;110;131
81;121;136;143
112;144;135;137
194;253;245;253
259;337;332;317
253;316;304;272
190;255;256;237
83;135;137;136
0;5;26;39
0;0;0;0
0;0;0;0
0;0;0;0
9;0;1;1
19;2;1;2
28;19;23;24
46;50;66;96
66;92;129;137
97;135;134;140
126;156;150;141
251;295;264;253
266;337;324;309
225;306;269;261
143;212;227;253
16;62;113;131
0;0;13;28
0;0;0;0
0;0;0;0
0;0;0;0
16;4;4;6
24;14;14;19
45;51;67;108
64;89;130;142
97;133;134;133
124;150;133;139
247;286;253;253
261;349;339;320
218;310;279;257
142;221;244;247
21;71;124;130
0;0;5;16
0;0;0;0
0;0;0;0
0;0;0;0
5;0;0;0
23;13;18;28
31;33;45;69
56;79;118;137
81;122;143;135
113;135;135;137
216;259;255;256
267;330;327;319
237;335;313;269
176;251;261;251
67;129;136;131
0;0;9;12
0;0;0;0
0;0;0;0
0;0;0;0
2;0;0;0
18;8;9;16
30;23;28;40
52;65;92;131
73;108;136;133
104;155;141;132
145;192;200;209
255;339;322;289
256;333;320;286
204;279;255;259
123;165;158;150
0;6;21;23
0;0;0;0
0;0;0;0
0;0;0;0
0;0;0;0
5;0;0;0
22;17;17;30
43;48;66;108
60;83;120;134
86;129;136;142
120;152;134;136
234;286;253;245
262;356;347;334
232;332;313;269
169;256;253;235
48;116;142;137
0;3;19;32
0;0;0;0
0;0;0;0
0;0;0;0
9;1;1;2
21;10;7;5
31;31;32;46
52;66;88;131
74;115;128;138
111;141;134;131
175;227;245;254
256;329;322;298
254;323;310;269
199;267;256;236
99;148;138;135
0;3;8;12
0;0;0;0
0;0;0;0
0;0;0;0
1;0;0;1
13;1;2;3
21;8;6;7
43;44;59;85
59;79;119;134
83;126;138;142
117;142;135;137
213;259;246;253
264;359;359;355
248;326;318;298
187;255;258;251
74;128;147;133
0;1;18;29
0;0;0;0
0;0;0;0
0;0;0;0
1;0;0;0
22;11;13;18
37;37;48;78
58;76;118;135
85;125;135;132
115;147;132;139
189;248;239;240
261;361;366;377
253;336;333;334
194;262;257;252
91;136;137;138
0;0;10;20
0;0;0;0
0;0;0;0
0;0;0;0
8;0;1;1
15;2;0;2
24;20;19;22
49;55;76;113
76;109;125;130
108;134;134;136
133;168;165;152
255;310;268;255
254;325;295;258
207;281;255;245
128;178;190;184
6;30;62;103
0;0;1;16
0;0;0;0
0;0;0;0
0;0;0;0
15;1;2;2
23;13;14;17
38;41;54;77
59;81;121;139
89;130;139;132
124;148;140;133
240;275;249;248
271;329;320;295
227;316;279;252
159;240;230;251
38;105;135;136
0;0;12;22
0;0;0;0
0;0;0;0
0;0;0;0
5;0;0;0
17;7;5;2
30;28;33;42
49;62;83;124
80;120;135;132
111;143;140;139
174;225;250;251
255;328;322;301
250;316;296;260
192;259;249;259
99;156;148;133
2;12;32;42
0;0;0;0
0;0;0;0
0;0;0;0
1;0;0;0
20;7;9;12
28;18;27;34
52;61;87;130
67;100;141;134
98;136;149;135
133;156;156;148
259;307;270;263
262;334;313;280
210;286;252;258
135;185;195;204
6;29;60;100
0;0;0;10
0;0;0;0
0;0;0;0
0;0;0;0
5;0;0;0
23;14;17;32
43;43;64;100
61;82;119;132
88;130;137;142
119;153;137;139
246;280;249;248
263;349;338;320
237;335;316;277
168;251;253;234
45;109;140;131
0;0;11;20
0;0;0;0
0;0;0;0
0;0;0;0
11;1;1;1
21;6;4;4
34;32;37;51
52;67;93;131
80;120;135;137
107;153;134;134
184;253;250;258
257;341;327;308
253;324;306;275
189;259;247;258
96;154;149;137
0;4;16;23
0;0;0;0
0;0;0;0
0;0;0;0
1;0;0;2
16;5;8;7
33;27;39;52
48;64;93;129
66;98;140;139
102;138;134;133
131;157;150;140
253;292;260;246
263;332;316;289
227;309;270;259
135;211;226;241
17;56;109;132
0;0;13;31
0;0;0;0
0;0;0;0
0;0;0;0
16;6;7;10
31;29;36;48
52;64;96;133
67;102;138;143
100;138;138;139
134;176;184;197
254;313;279;250
260;322;298;257
204;277;253;249
134;180;196;211
8;27;65;117
0;0;0;15
0;0;0;0
0;0;0;0
0;0;0;0
16;4;2;4
29;23;32;52
52;58;87;131
66;93;133;133
95;131;145;132
120;157;144;138
253;300;263;255
269;334;324;299
219;308;272;243
153;228;254;225
36;92;133;133
0;0;16;28
0;0;0;0
0;0;0;0
0;0;0;1
8;0;0;0
20;9;4;4
36;30;36;43
55;68;96;130
75;115;129;140
108;155;137;132
179;242;232;254
256;337;327;308
251;341;325;294
191;266;260;248
90;145;136;137
1;5;14;32
0;0;0;0
0;0;0;0
0;0;0;0
1;0;0;2
15;6;3;6
25;20;21;23
46;49;67;95
68;99;132;136
90;133;138;128
124;148;139;140
250;293;260;258
265;353;342;321
221;316;289;250
154;236;264;244
28;93;137;139
0;0;16;23
0;0;0;0
0;0;0;0
0;0;0;0
6;0;0;0
23;14;14;30
40;45;63;100
63;90;129;131
86;131;135;137
118;153;137;140
237;295;256;260
266;335;329;319
229;324;292;253
163;246;254;237
48;120;135;130
0;4;19;27
0;0;0;0
0;0;0;0
0;0;0;0
4;0;0;1
15;5;0;2
34;24;29;37
53;69;96;135
79;119;139;139
105;154;137;139
170;234;253;240
257;329;321;302
255;328;316;281
205;275;259;252
107;168;165;148
3;17;39;56
0;0;0;0
0;0;0;0
0;0;0;0
1;0;0;0
14;1;2;0
33;25;36;49
51;64;93;128
66;98;141;139
98;135;134;139
129;160;153;142
252;292;254;256
258;326;303;261
217;297;261;242
139;203;227;255
19;61;123;136
0;0;13;33
0;0;0;0
0;0;0;0
2;0;0;1
19;7;9;11
27;21;22;32
49;59;85;124
67;98;136;134
94;134;133;137
130;158;149;133
254;292;254;252
258;325;302;266
217;295;255;253
133;194;206;214
15;52;100;135
0;0;9;24
0;0;0;0
0;0;0;0
0;0;0;0
8;0;0;0
29;19;26;33
45;51;73;112
62;85;128;131
95;128;131;135
123;144;131;152
231;282;250;246
263;335;322;290
237;322;288;259
159;247;246;248
48;122;141;134
0;1;20;33
0;0;0;0
0;0;0;0
0;0;0;0
10;1;1;2
21;11;5;5
39;46;58;92
63;85;120;127
82;127;140;138
112;143;138;135
214;256;248;258
264;357;356;348
238;316;301;261
183;258;255;239
76;132;133;147
0;1;5;15
0;0;0;0
0;0;0;0
0;0;0;0
4;0;0;1
20;10;10;12
37;36;46;74
57;74;108;130
83;124;135;144
108;155;137;136
172;234;256;233
261;334;329;308
251;315;298;258
196;264;259;253
99;159;156;136
3;15;35;54
0;0;0;0
0;0;0;0
0;0;0;0
1;0;0;0
13;1;1;0
31;25;32;52
50;60;85;122
69;98;134;128
105;139;130;134
128;160;157;154
253;292;260;251
260;329;307;280
220;301;264;253
135;202;219;237
17;60;110;137
0;0;4;16
0;0;0;0
0;0;0;0
0;0;0;0
10;0;0;0
31;25;31;45
47;59;81;124
65;96;132;131
93;135;137;135
120;166;156;134
245;297;261;245
262;358;352;340
213;308;281;255
138;212;236;219
25;77;126;126
0;0;5;11
0;0;0;0
0;0;0;0
0;0;0;0
6;0;0;0
26;16;18;32
44;50;69;115
70;95;132;135
89;133;137;137
121;146;135;135
229;274;252;249
265;358;355;360
236;333;322;290
169;251;256;230
57;126;130;129
0;0;13;18
0;0;0;0
0;0;0;0
0;0;0;0
5;0;0;0
24;13;12;25
43;48;62;103
62;87;128;135
83;130;135;143
114;142;135;133
212;259;245;251
259;349;341;323
243;318;306;271
177;252;243;252
63;129;136;136
0;2;15;21
0;0;0;0
0;0;0;0
0;0;0;0
10;0;1;1
24;13;14;27
36;33;44;66
57;80;115;137
86;128;134;130
119;150;138;139
205;257;258;246
258;347;341;323
245;323;307;278
182;256;260;250
83;130;135;137
0;4;19;35
0;0;0;1
0;0;0;0
0;0;0;0
9;0;1;1
18;4;3;3
27;21;23;32
48;64;85;126
75;112;132;137
111;134;132;135
141;175;177;180
254;308;272;257
259;341;314;278
206;291;263;246
129;178;183;181
11;34;66;105
0;0;0;5
0;0;0;0
0;0;0;0
0;0;0;0
13;1;0;1
31;27;30;47
49;63;92;130
65;101;129;138
106;127;135;137
131;166;167;173
251;300;261;253
258;329;311;277
217;295;263;253
131;189;204;218
8;39;84;129
0;0;5;29
0;0;0;0
0;0;0;0
0;0;0;1
5;0;0;2
21;6;3;5
40;41;52;74
58;81;121;146
81;124;148;137
111;138;138;138
188;246;253;246
261;338;332;330
246;334;319;284
182;257;249;236
84;139;137;136
0;1;14;14
0;0;0;0
0;0;0;0
0;0;0;0
1;0;0;0
15;6;6;10
30;30;37;59
47;64;89;135
69;102;135;140
105;149;136;136
137;179;177;178
253;309;277;260
261;342;315;279
202;282;249;253
126;170;174;176
2;20;48;72
0;0;0;0
0;0;0;0
0;0;0;0
0;0;0;1
6;0;0;0
18;7;7;5
32;30;32;46
50;66;88;131
74;113;131;134
111;138;131;147
177;229;247;252
258;332;317;296
247;339;320;277
186;261;259;235
94;150;143;137
0;4;15;19
0;0;0;0
0;0;0;0
0;0;0;0
1;0;0;0
10;2;0;1
23;19;16;22
48;55;77;117
73;107;134;133
99;140;136;140
133;158;158;150
248;309;272;264
260;345;329;301
210;298;267;255
130;193;218;234
10;49;102;138
0;0;10;24
0;0;0;2
0;0;0;0
0;0;0;0
20;10;11;13
31;29;33;46
48;62;83;123
80;120;137;132
110;139;137;133
149;181;188;190
251;309;278;258
251;313;274;249
197;261;244;254
121;171;170;159
17;28;54;77
0;0;0;2
0;0;0;0
0;0;0;0
2;0;0;1
19;8;9;12
35;35;45;73
58;72;110;127
75;115;133;139
104;147;132;140
139;180;180;191
246;320;282;250
252;323;289;252
206;277;257;241
130;169;178;172
14;34;71;104
0;0;0;7
0;0;0;0
0;0;0;0
0;0;0;0
14;2;3;0
36;30;36;51
53;65;97;139
76;112;130;137
107;133;137;133
129;156;150;146
250;289;256;255
256;341;317;282
206;285;252;258
129;194;208;241
19;53;99;137
0;0;14;25
0;0;0;0
0;0;0;0
0;0;0;0
15;1;1;1
28;19;20;23
51;59;80;122
74;111;130;127
99;138;142;143
130;154;147;138
249;308;262;255
261;322;298;263
206;282;256;253
131;198;219;244
21;62;113;129
0;0;14;38
0;0;0;0
0;0;0;0
1;0;0;1
20;7;9;13
28;21;24;33
50;60;86;125
70;99;139;142
106;142;138;135
135;157;153;134
248;288;252;257
257;341;310;269
206;284;250;254
135;189;198;209
28;64;111;131
0;0;14;31
0;0;0;0
0;0;0;0
1;0;0;0
16;8;6;16
38;35;47;73
55;71;110;127
82;122;135;133
106;148;135;132
143;182;193;202
251;301;269;263
256;319;284;260
211;273;254;243
124;164;159;154
6;22;44;61
0;0;0;0
0;0;0;0
0;0;0;0
1;0;0;0
14;1;0;1
30;25;28;45
44;53;70;104
63;90;133;138
95;134;132;133
127;152;138;133
234;285;253;245
256;324;300;262
216;295;255;253
139;209;224;242
37;90;132;136
0;1;22;44
0;0;0;1
0;0;0;0
0;0;0;0
8;0;0;1
22;14;9;12
36;38;45;64
62;81;117;128
90;130;131;142
119;147;136;141
205;257;249;264
258;323;303;272
231;321;286;254
168;250;258;248
74;135;137;139
0;6;24;35
0;0;0;2
0;0;0;0
0;0;0;0
11;0;1;3
25;9;13;10
46;46;62;98
59;81;116;132
82;127;132;139
114;137;135;134
178;237;257;246
262;328;319;290
242;310;279;253
183;257;259;243
90;140;133;133
1;7;20;29
0;0;0;0
0;0;0;0
0;0;0;0
1;0;0;0
20;10;10;16
32;29;34;51
53;64;91;127
81;121;132;132
110;157;141;141
149;196;207;221
252;308;279;251
250;334;300;254
193;264;253;254
124;169;171;174
21;37;70;114
0;0;5;19
0;0;0;0
0;0;0;0
3;0;0;0
27;14;22;29
37;37;53;75
63;85;123;127
89;129;132;133
114;130;144;143
177;222;249;245
254;341;331;308
238;339;321;278
188;261;250;237
97;164;161;147
5;24;50;67
0;0;0;5
0;0;0;0
0;0;0;0
3;0;0;0
16;3;4;0
37;35;45;65
55;71;108;130
82;122;134;130
103;148;134;137
137;176;182;187
250;323;292;261
249;315;283;254
194;263;249;257
122;188;195;193
14;48;82;123
0;0;10;36
0;0;0;0
0;0;0;0
11;0;1;1
21;8;7;5
37;31;38;48
56;69;99;128
81;123;126;133
106;147;133;137
155;198;215;242
252;303;278;255
252;333;300;255
190;264;251;253
119;157;158;148
13;26;54;77
0;0;0;2
0;0;0;0
0;0;0;0
3;0;0;1
21;11;9;15
38;38;47;80
58;77;117;136
80;122;137;136
117;148;136;138
149;185;191;198
247;322;283;253
249;339;308;262
194;267;254;238
120;160;163;157
13;33;56;92
0;0;1;17
0;0;0;0
0;0;0;0
2;0;0;0
17;5;2;2
31;26;29;33
55;68;97;127
71;110;140;137
99;145;134;136
132;167;170;171
247;295;264;255
256;335;306;263
196;274;251;246
129;187;197;210
23;55;100;141
0;0;13;30
0;0;0;0
0;0;0;0
7;0;1;4
17;4;2;2
29;22;23;34
53;65;88;122
71;106;137;140
102;142;139;132
134;167;166;164
247;314;274;257
252;319;284;250
204;276;248;238
131;180;185;187
26;50;92;132
0;0;9;25
0;0;0;1
0;0;0;0
1;0;0;0
21;10;10;12
31;29;38;54
49;62;88;127
77;117;133;147
102;149;135;135
143;182;196;208
250;306;268;261
253;310;269;255
203;266;253;248
119;181;183;185
22;52;95;132
0;0;12;24
0;0;0;1
0;0;0;0
4;0;0;1
19;11;3;5
31;31;32;42
52;66;90;132
79;121;136;131
114;142;137;133
150;194;203;215
254;308;283;260
245;324;286;253
194;267;249;235
114;163;157;145
22;39;66;103
0;0;0;8
0;0;0;0
0;0;0;0
10;1;1;1
23;13;11;12
39;39;49;69
62;84;120;130
88;129;134;132
119;133;138;139
180;231;251;243
259;331;317;299
250;317;294;258
192;254;257;258
91;146;137;132
4;19;40;54
0;0;0;1
0;0;0;0
0;0;0;0
7;0;0;2
20;14;15;29
41;45;61;95
58;78;119;135
79;121;145;141
109;153;138;140
166;223;245;245
250;321;306;278
243;305;269;246
185;259;243;248
99;168;161;153
14;42;71;108
0;0;2;16
0;0;0;0
0;0;0;0
14;1;1;1
34;25;34;47
45;49;73;106
71;102;140;132
97;132;138;139
125;148;139;133
210;256;242;254
260;312;285;262
217;292;254;256
149;220;246;248
46;111;149;133
0;6;23;40
0;0;0;1
0;0;0;0
0;0;0;0
4;0;0;1
20;8;5;6
33;32;38;50
55;70;97;130
75;117;131;132
113;141;134;139
157;198;213;234
254;307;281;255
245;321;281;252
184;254;258;252
109;152;150;138
10;25;47;73
0;0;1;10
0;0;0;0
0;0;0;0
5;0;0;0
30;19;23;32
47;52;72;111
63;89;131;136
94;127;132;134
120;139;137;133
195;249;260;256
257;340;336;309
232;328;311;267
173;258;257;253
78;136;137;139
2;15;38;64
0;0;0;1
0;0;0;0
0;0;0;1
6;0;0;0
21;7;5;3
31;29;33;43
51;62;86;124
75;119;134;142
109;135;132;129
141;177;183;193
255;308;271;261
256;333;302;268
195;271;257;248
120;165;168;164
20;32;62;90
0;0;0;6
0;0;0;0
0;0;0;0
1;0;0;0
20;8;12;13
33;27;33;46
50;60;84;122
76;116;130;137
101;146;139;138
134;178;181;183
248;304;262;254
254;333;290;252
189;266;255;252
124;172;178;183
16;36;63;104
0;0;2;15
0;0;0;0
0;0;0;0
4;0;0;0
21;12;12;23
31;29;38;57
52;65;93;127
75;110;134;132
104;147;134;137
153;201;219;248
252;307;281;254
249;330;298;255
192;265;252;238
115;165;164;151
16;31;53;77
0;0;0;3
0;0;0;0
0;0;0;0
3;0;0;1
18;4;3;1
31;25;28;32
55;67;97;129
80;120;138;139
109;136;130;135
132;169;166;171
244;306;267;256
253;321;295;258
202;269;248;261
133;175;189;202
21;48;91;128
0;0;10;28
0;0;0;0
0;0;0;0
2;0;0;0
25;12;13;19
35;31;42;57
57;77;112;124
77;122;134;135
98;150;134;141
171;215;224;244
1662;808;539;437
2316;984;653;508
2187;971;635;506
1204;643;460;380
183;224;251;242
0;0;52;102
0;0;0;26
0;0;0;1
0;0;0;1
0;0;0;0
0;0;0;2
0;0;0;9
0;0;1;2
0;8;18;40
121;109;131;124
975;550;384;314
2288;1021;709;519
2692;1183;733;529
2232;1039;675;499
965;576;392;293
66;166;161;135
0;0;13;23
0;0;0;1
0;0;0;0
0;0;0;0
0;0;0;1
0;0;0;9
0;0;0;1
0;0;2;10
29;32;42;68
206;151;136;136
1369;744;511;398
2618;1123;734;555
2693;1212;729;529
2027;977;628;493
729;491;381;283
0;109;157;134
0;0;13;27
0;0;0;2
0;0;0;1
0;0;0;0
0;0;0;0
0;0;0;3
0;0;0;2
0;0;4;13
103;98;125;126
489;301;247;212
1925;936;640;510
2810;1242;759;561
2590;1217;728;522
1572;830;528;385
383;296;250;197
0;8;54;88
0;0;0;6
0;0;0;0
0;0;0;0
0;0;0;0
0;0;0;1
0;0;0;1
0;0;2;6
0;5;12;28
118;91;118;124
574;361;290;246
1984;934;636;510
2774;1228;763;586
2529;1193;736;528
1474;775;517;396
332;293;258;210
0;12;57;100
0;0;0;14
0;0;0;4
0;0;0;1
0;0;0;10
0;0;0;4
0;0;1;11
0;0;4;8
55;59;79;118
217;169;142;135
1199;648;478;386
1542;744;529;435
1384;672;492;418
824;493;409;321
383;282;249;247
131;128;129;140
0;4;21;32
0;0;5;12
0;0;4;15
0;1;3;5
16;23;33;48
42;55;77;115
75;108;137;136
111;133;149;132
200;253;245;249
261;328;321;299
232;326;295;261
170;253;251;252
65;131;149;136
0;12;36;59
0;0;0;1
0;0;0;0
0;0;0;0
12;0;0;0
22;14;12;19
47;50;69;103
63;90;131;139
91;133;141;138
118;154;143;136
212;266;256;253
255;327;311;285
226;310;269;254
164;247;245;241
64;133;135;134
0;8;23;38
0;0;0;0
0;0;0;0
0;0;0;0
13;4;2;3
32;26;33;47
50;63;89;127
66;100;142;129
104;138;133;137
125;153;139;132
226;275;246;259
260;327;306;279
223;307;272;259
147;219;243;252
49;110;136;134
0;2;20;29
0;0;0;0
0;0;0;0
2;0;0;0
13;0;0;1
27;20;19;24
46;52;66;102
75;103;126;134
97;133;144;138
125;141;136;136
233;284;259;250
257;323;304;278
212;290;255;255
140;206;229;256
38;85;138;130
0;0;18;32
0;0;0;0
0;0;0;0
0;0;0;0
14;0;0;1
33;27;35;47
46;55;79;119
74;110;130;133
105;149;134;130
128;152;138;131
243;279;255;257
256;321;302;272
213;292;258;246
134;200;216;233
35;80;128;131
0;0;17;34
0;0;0;0
0;0;0;0
2;0;0;1
15;1;0;1
26;21;22;24
52;62;84;123
69;105;143;132
106;144;135;136
129;174;159;148
249;302;262;258
258;320;292;257
207;275;253;249
130;192;210;243
31;70;121;136
0;0;17;43
0;0;0;0
0;0;0;0
1;0;0;0
13;4;4;12
26;21;23;30
45;52;71;106
73;111;130;132
112;132;148;137
177;212;227;247
310;380;368;375
273;340;344;345
190;263;263;258
66;129;132;154
0;0;0;1
0;0;0;0
0;0;0;0
0;0;0;0
0;0;0;0
3;0;0;0
21;11;12;21
41;42;56;86
59;78;118;131
89;128;136;136
127;148;135;144
238;254;259;245
307;378;382;377
261;326;329;312
170;255;254;248
3;78;131;132
0;0;0;2
0;0;0;0
0;0;0;0
0;0;0;0
0;0;0;0
11;1;2;1
21;7;3;4
43;43;54;78
58;78;111;131
85;129;132;135
124;147;132;144
237;269;238;245
305;376;384;382
257;323;323;310
169;250;265;252
8;82;137;141
0;0;0;0
0;0;0;0
0;0;0;0
0;0;0;0
0;0;0;0
10;0;1;2
21;11;6;4
37;37;45;61
56;76;108;127
89;131;136;137
126;148;135;139
256;276;246;261
305;374;383;375
255;320;315;296
159;251;256;243
0;69;131;133
0;0;0;0
0;0;0;0
0;0;0;0
0;0;0;0
0;0;0;0
5;0;0;0
21;7;6;4
41;41;53;74
59;78;113;131
85;129;134;142
123;153;138;142
206;255;252;248
267;341;332;320
249;328;315;291
185;259;266;252
72;131;133;143
0;0;5;13
0;0;0;0
0;0;0;0
0;0;0;0
0;0;0;0
13;0;0;0
25;16;16;19
47;53;71;115
70;105;138;136
93;133;138;134
120;165;155;138
229;290;248;253
258;327;304;274
212;291;259;240
142;210;236;230
32;82;126;134
0;0;14;26
0;0;0;0
0;0;0;0
0;0;0;0
9;0;0;0
32;23;28;40
44;50;67;102
68;101;136;130
92;135;135;141
123;152;137;140
236;289;264;257
259;331;319;296
231;315;284;258
155;230;251;233
45;113;139;135
0;7;23;36
0;0;0;2
0;0;0;0
0;0;0;0
16;4;4;6
24;20;21;22
45;50;63;95
70;100;134;134
92;134;138;142
122;151;137;142
230;280;246;253
260;329;311;281
219;301;265;249
147;219;243;246
40;99;135;142
0;7;35;58
0;0;0;4
0;0;0;0
0;0;0;0
15;1;2;3
24;15;19;23
43;42;56;86
61;84;118;136
88;130;135;137
119;148;132;145
213;261;253;261
259;330;324;304
234;323;297;265
165;248;255;250
77;133;134;129
0;3;19;21
0;0;0;0
0;0;0;0
0;0;0;0
5;0;0;0
20;9;5;3
42;43;53;73
58;77;109;132
86;124;132;131
125;147;139;129
232;263;251;239
326;383;367;380
372;379;377;375
372;363;343;306
277;236;250;207
130;93;132;126
0;0;2;6
0;0;0;0
0;0;0;0
0;0;0;1
0;0;0;0
0;0;0;1
0;0;1;10
0;0;9;16
0;8;19;39
61;68;93;131
226;193;186;191
1079;634;510;397
1976;885;615;504
2027;901;620;501
1524;738;511;398
554;326;255;200
0;50;93;127
0;0;5;18
0;0;0;0
0;0;0;1
0;0;0;1
0;0;1;4
0;0;2;9
0;0;2;4
0;1;5;13
48;62;87;126
182;147;137;132
890;564;410;332
1647;779;568;438
1863;811;528;415
1478;685;474;379
641;381;303;247
232;212;203;183
102;129;127;130
37;81;132;132
30;79;130;141
42;98;134;137
77;132;130;136
121;147;138;131
259;285;253;247
317;379;364;371
256;311;302;276
147;221;248;231
0;53;108;130
0;0;9;21
0;0;0;0
0;0;0;0
0;0;0;0
0;0;0;0
5;0;0;0
21;10;9;6
47;46;65;93
63;80;121;129
92;131;135;133
122;139;137;136
188;249;255;245
253;341;333;312
226;322;296;258
166;252;259;249
73;135;135;137
0;12;26;38
0;0;0;0
0;0;0;0
0;0;0;0
8;0;0;0
22;11;7;5
40;42;53;84
63;85;117;123
93;129;134;134
120;133;139;135
166;207;227;255
256;338;331;316
248;324;307;277
190;256;249;258
109;149;142;135
7;12;27;35
0;0;0;0
0;0;0;0
0;0;0;0
11;0;1;1
24;10;10;5
36;35;44;58
63;83;120;138
93;129;138;134
119;133;133;132
174;219;249;246
256;323;315;283
249;314;291;252
195;255;255;252
110;147;139;131
7;9;20;31
0;0;0;0
0;0;0;0
0;0;0;0
6;0;0;2
22;11;12;21
41;41;55;81
61;85;122;129
86;129;135;131
114;141;138;139
165;205;227;252
283;335;326;315
296;342;326;291
354;347;337;295
877;497;379;267
364;269;245;203
0;19;57;88
0;0;0;5
0;0;0;2
0;0;0;0
0;0;0;1
0;0;0;1
0;0;0;4
0;0;0;3
0;1;9;21
58;64;84;117
272;192;180;181
1577;799;572;427
2573;1094;690;509
2536;1156;732;528
1679;840;535;393
480;362;292;232
0;39;85;130
0;0;0;19
0;0;0;1
0;0;0;1
0;0;0;0
0;0;0;1
0;0;0;10
0;0;1;5
1;7;17;26
135;103;131;136
761;446;348;280
2031;923;636;502
2551;1102;691;511
2250;1009;658;496
1149;606;422;314
190;219;229;230
0;4;50;107
0;0;0;21
0;0;0;4
0;0;0;2
0;0;0;2
0;0;0;10
0;0;0;5
0;0;4;6
45;49;66;93
207;160;134;130
1174;639;476;381
2176;937;624;505
2201;940;619;506
1753;791;529;394
752;429;315;253
29;128;138;130
0;0;16;32
0;0;0;3
0;0;0;2
0;0;0;1
0;0;1;6
0;0;1;6
0;0;6;12
0;6;15;43
63;71;99;135
237;205;200;206
1141;632;506;403
1538;725;513;433
852;509;418;356
385;339;289;255
164;169;153;134
37;56;85;115
0;0;3;7
0;0;0;0
7;1;2;0
32;25;34;45
46;54;74;114
69;98;131;127
96;132;136;142
119;162;150;136
218;280;251;246
259;342;324;289
214;303;262;257
142;212;233;256
35;91;139;138
0;0;21;33
0;0;0;2
0;0;0;0
0;0;0;0
17;4;3;6
32;29;34;53
50;64;94;135
63;98;137;134
81;128;146;137
125;147;138;132
886;533;406;321
1826;833;582;461
2018;889;616;501
1707;779;529;420
676;386;279;220
0;86;127;128
0;0;7;22
0;0;0;2
0;0;0;0
0;0;0;0
0;0;0;3
0;0;0;1
0;0;1;6
0;0;9;18
32;39;55;84
190;138;130;136
1211;668;465;383
2359;1027;711;530
2463;1091;670;511
1922;905;607;466
713;453;352;278
0;102;140;133
0;0;10;33
0;0;0;3
0;0;0;0
0;0;0;0
0;0;0;4
0;0;0;1
0;0;2;6
0;6;17;29
118;99;130;129
510;316;257;245
1798;866;618;505
2545;1095;690;514
2343;1051;693;501
1390;703;485;386
336;261;238;207
0;11;57;94
0;0;0;13
0;0;0;1
0;0;0;2
0;0;0;1
0;0;1;10
0;0;3;12
0;1;9;23
55;55;80;114
209;161;138;140
1158;643;484;388
2129;921;631;491
2176;945;632;496
1634;745;510;397
733;425;311;252
255;244;202;183
65;123;135;131
9;61;112;126
10;56;120;132
37;78;134;134
62;115;138;137
107;138;136;136
160;203;218;245
253;309;289;268
245;306;271;252
193;253;254;248
115;150;140;133
20;27;48;71
0;0;0;6
0;0;0;0
0;0;0;0
11;1;0;1
22;10;11;7
41;39;48;66
60;78;111;125
84;126;138;141
115;138;137;137
183;235;257;249
259;343;340;323
247;326;311;285
190;256;258;238
101;157;147;135
6;21;37;53
0;0;0;1
0;0;0;0
0;0;0;0
11;0;1;1
22;9;8;3
37;31;38;51
56;68;97;131
81;119;131;130
116;146;132;129
149;183;190;197
252;325;290;255
250;314;284;256
194;260;253;233
125;168;173;171
19;39;71;110
0;0;8;19
0;0;0;0
0;0;0;0
11;0;1;1
21;11;6;4
44;44;55;80
58;78;111;129
81;126;136;138
118;145;133;132
166;213;223;246
258;343;333;316
247;321;304;261
191;258;249;253
115;158;154;145
16;30;55;77
0;0;0;3
0;0;0;0
0;0;0;0
6;0;0;0
29;16;22;31
46;50;69;115
71;96;131;134
90;132;136;137
120;143;137;139
194;254;247;260
261;333;324;307
246;316;295;262
191;258;258;261
90;143;137;137
5;14;32;46
0;0;0;0
0;0;0;0
0;0;0;0
10;0;1;1
32;16;27;35
42;42;59;86
62;81;120;140
89;130;139;134
123;148;138;142
252;262;246;255
328;380;348;335
336;375;352;353
294;303;271;253
197;192;180;173
32;37;56;75
0;0;0;6
0;0;0;0
0;0;0;0
0;0;0;2
0;0;0;2
0;2;6;18
0;2;10;16
10;25;40;70
36;56;88;126
89;126;129;134
250;256;253;244
357;384;379;374
332;363;373;379
300;302;270;250
226;217;217;216
77;95;132;132
0;1;24;51
0;0;0;1
0;0;0;0
5;0;0;0
21;13;14;17
48;51;71;109
71;102;131;136
102;133;145;132
134;147;136;140
252;276;256;253
268;316;290;262
189;261;258;240
123;181;198;225
9;40;83;130
0;0;13;34
0;0;0;0
0;0;0;0
0;0;0;0
13;1;1;6
31;25;32;45
49;60;87;126
66;98;136;140
92;134;137;137
123;150;138;140
223;271;246;255
256;323;303;275
219;302;261;249
159;237;260;246
53;124;135;129
0;9;32;52
0;0;0;0
0;0;0;0
0;0;0;0
13;1;1;2
22;14;15;20
42;45;62;88
60;84;121;128
86;127;138;140
120;148;132;145
209;253;262;248
257;345;336;314
226;319;297;255
158;249;246;251
59;128;143;138
0;2;20;33
0;0;0;0
0;0;0;0
0;0;0;0
15;1;1;1
10;8;11;15
0;3;12;18
6;16;34;54
16;35;53;93
45;75;118;142
102;134;135;146
999;613;455;381
2103;906;626;501
2138;932;622;508
1598;761;528;420
523;335;266;228
0;50;101;134
0;0;1;18
0;0;0;1
0;0;0;0
0;0;0;0
0;0;0;1
0;0;0;9
0;0;0;3
0;0;9;18
51;50;66;101
276;181;165;150
1660;842;572;419
2765;1200;762;581
2662;1228;740;530
1805;921;615;472
542;380;316;258
0;46;110;131
0;0;2;19
0;0;0;4
0;0;0;0
0;0;0;0
0;0;0;5
0;0;0;3
0;0;2;9
0;1;7;16
105;98;122;116
594;380;276;228
2012;949;639;492
2791;1237;761;575
2563;1199;738;529
1485;776;518;396
334;280;248;219
0;2;53;87
0;0;0;12
0;0;0;0
0;0;0;0
0;0;0;0
0;0;0;0
0;0;0;5
0;0;0;4
0;5;13;22
136;98;127;127
777;453;358;296
2181;999;689;510
2821;1255;760;556
2515;1188;721;507
1341;749;511;377
254;257;246;215
0;2;54;97
0;0;0;22
0;0;0;10
0;0;0;2
0;0;0;3
0;0;0;2
0;0;1;6
0;0;8;17
58;59;84;123
237;160;138;137
1441;762;527;383
2643;1132;737;553
2557;1161;736;535
1795;882;589;443
642;401;292;244
0;83;130;127
0;0;18;45
0;0;0;3
0;0;0;2
0;0;0;1
0;0;0;2
0;0;0;2
0;0;0;4
0;1;5;11
63;69;92;128
251;172;152;133
1395;743;509;397
2278;976;653;515
2199;972;640;506
1649;777;528;388
540;365;310;248
0;83;137;127
0;0;15;29
0;0;0;6
0;0;0;0
0;0;0;3
0;0;0;1
0;0;1;6
0;0;2;6
0;1;12;22
71;72;95;132
392;250;247;229
1606;796;572;432
2401;1013;665;508
2259;982;634;507
1461;744;514;386
399;289;254;205
0;10;50;83
0;0;0;14
0;0;0;1
0;0;0;0
0;0;0;0
0;0;0;2
0;0;0;1
0;0;1;6
0;0;8;21
86;82;116;133
496;299;248;224
1975;934;635;495
2904;1267;770;578
2696;1265;764;568
1632;869;568;395
390;321;255;200
0;14;53;85
0;0;0;11
0;0;0;0
0;0;0;0
0;0;0;1
0;0;0;1
0;0;0;4
0;0;0;2
3;8;18;39
133;105;132;135
895;507;385;319
2369;1053;722;535
2959;1308;805;599
2549;1229;734;526
1244;722;506;378
159;228;255;219
0;0;54;102
0;0;0;23
0;0;0;6
0;0;0;0
0;0;0;0
0;0;0;4
0;0;0;3
0;0;8;19
82;78;100;130
336;247;239;211
1847;906;642;505
2947;1287;793;591
2809;1333;800;587
1850;968;630;493
545;393;322;257
0;38;100;142
0;0;6;28
0;0;0;2
0;0;0;1
0;0;0;0
0;0;0;0
0;0;0;1
0;0;0;2
0;4;15;22
137;107;128;118
872;509;383;289
2276;1017;695;513
2830;1256;761;553
2311;1108;676;500
1100;632;454;362
163;212;235;209
0;21;74;121
0;0;6;32
0;0;1;15
0;0;0;2
0;0;1;5
0;0;1;6
0;0;5;12
0;1;9;32
31;37;48;78
234;176;143;132
343;341;285;260
379;385;360;346
353;368;364;343
277;262;254;250
175;142;140;134
72;66;98;130
2;1;19;35
0;0;0;1
15;2;1;2
29;21;24;32
55;65;89;122
74;108;132;138
108;135;135;138
128;173;160;146
245;294;261;253
260;326;306;271
218;293;255;249
134;212;233;250
24;78;132;140
0;0;22;37
0;0;0;0
0;0;0;0
4;0;0;1
21;11;10;12
41;42;54;80
65;84;123;130
89;131;134;136
115;144;134;136
157;194;207;220
250;303;275;249
253;305;269;254
193;253;254;245
120;161;163;147
21;30;52;72
0;0;1;10
0;0;0;0
0;0;0;0
7;0;1;2
21;9;5;3
35;30;36;43
53;68;92;130
78;122;138;133
105;153;137;139
138;177;178;188
254;308;271;255
259;329;300;265
212;285;264;253
132;183;199;210
18;47;84;127
0;0;5;22
0;0;0;0
0;0;0;0
0;0;0;0
0;0;0;1
0;0;1;1
0;2;6;21
2;9;19;35
0;15;33;58
0;12;39;76
87;105;134;133
932;527;386;321
2182;970;659;509
2555;1136;728;540
2183;1011;654;488
909;534;386;310
20;133;134;135
0;0;2;15
0;0;0;1
0;0;0;0
0;0;0;0
0;0;0;1
0;0;0;0
0;0;0;2
0;0;2;10
29;27;42;63
200;136;129;130
1364;727;509;402
2640;1128;742;562
2725;1232;749;547
2060;1013;654;510
700;490;375;330
0;113;135;138
0;0;19;47
0;0;0;11
0;0;0;1
0;0;0;1
0;0;0;1
0;0;0;1
0;0;0;2
0;1;5;10
108;98;120;132
611;382;281;229
2011;938;633;499
2772;1231;765;586
2481;1174;727;521
1369;736;508;385
275;251;250;206
0;4;51;88
0;0;0;12
0;0;0;1
0;0;0;1
0;0;0;1
0;0;0;6
0;0;0;2
0;0;4;12
0;10;17;29
129;100;126;126
833;497;387;317
1951;894;622;507
2278;969;639;496
1971;895;610;483
1018;525;387;326
162;194;204;202
0;9;46;84
0;0;0;13
0;0;0;9
0;0;0;1
0;0;0;2
0;0;0;3
0;0;0;1
0;0;3;4
0;3;6;14
86;91;117;114
515;333;261;232
1596;758;529;419
2061;879;610;488
1914;850;564;416
1126;574;396;291
251;248;231;242
0;46;110;136
0;0;32;66
0;0;4;23
0;0;3;12
0;0;1;12
0;0;4;20
0;0;2;9
0;1;12;28
57;61;83;123
445;269;216;244
1458;743;526;434
2067;895;612;489
2008;893;606;481
1240;630;465;382
304;257;247;236
0;29;92;142
0;0;5;32
0;0;0;5
0;0;0;3
0;0;0;1
0;0;0;3
0;0;0;1
0;0;8;12
0;5;17;28
123;92;121;129
850;501;385;295
2085;954;648;504
2607;1145;735;547
2247;1038;680;506
1075;626;451;367
109;209;227;238
0;0;47;109
0;0;2;31
0;0;0;3
0;0;0;1
0;0;0;0
0;0;0;1
0;0;1;10
0;4;16;32
122;91;125;130
616;380;281;230
2015;949;634;509
2778;1230;761;578
2546;1192;728;519
1434;777;519;394
303;270;237;199
0;1;40;76
0;0;0;4
0;0;0;0
0;0;0;0
0;0;0;1
0;0;0;8
0;0;0;1
0;0;0;4
0;3;7;16
123;94;122;127
616;380;276;224
2042;959;647;497
2798;1232;763;586
2490;1172;748;547
1402;758;512;389
294;262;251;203
0;5;53;93
0;0;0;12
0;0;0;0
0;0;0;0
0;0;0;3
0;0;0;0
0;0;0;2
0;0;2;11
7;21;33;60
130;99;131;138
589;380;283;247
1106;619;492;433
883;536;394;369
650;448;382;332
383;296;257;257
203;169;150;133
21;37;58;84
0;0;6;25
0;0;1;6
0;0;2;7
0;1;6;12
0;3;4;14
17;21;31;44
43;66;98;140
80;123;136;136
158;198;211;230
250;304;278;255
248;308;269;262
195;257;256;251
109;165;157;136
14;30;50;65
0;0;0;0
0;0;0;0
0;0;0;0
9;0;1;2
33;23;28;36
42;49;66;100
65;85;128;136
90;130;144;139
120;143;133;140
193;253;254;258
259;349;347;329
239;310;296;258
180;256;246;253
89;148;137;137
5;19;40;62
0;0;1;9
0;0;0;0
0;0;0;0
11;0;1;1
24;11;11;6
47;50;67;95
60;85;120;130
85;127;138;135
117;146;132;136
177;229;250;254
256;348;347;337
247;322;312;288
196;262;257;247
108;150;148;136
14;25;45;73
0;0;0;2
0;0;0;0
0;0;0;0
10;0;0;0
31;23;27;36
44;50;66;101
72;100;140;139
96;133;137;137
120;159;148;135
208;260;244;256
263;328;311;285
291;319;286;258
270;263;259;248
247;179;178;173
120;90;129;123
0;0;0;2
0;0;0;0
0;0;0;0
0;0;0;2
0;0;0;0
0;0;0;2
0;0;0;2
0;0;0;2
0;0;5;10
74;72;99;136
386;255;213;238
1759;860;613;500
2679;1166;737;549
2500;1143;728;529
1556;793;519;393
400;306;260;217
0;20;68;118
0;0;0;19
0;0;0;6
0;0;0;0
0;0;0;1
0;0;0;0
0;0;0;2
0;0;2;9
0;5;12;23
125;93;117;135
726;443;334;273
2053;955;646;496
2624;1155;742;552
2331;1080;655;500
1226;670;434;332
230;258;230;233
0;16;61;113
0;0;6;33
0;0;0;6
0;0;0;10
0;0;0;3
0;0;1;11
0;0;1;15
0;2;7;16
91;93;123;128
362;254;253;215
1260;690;493;416
1834;825;554;426
1498;727;512;399
1081;533;397;321
494;340;259;209
125;149;134;131
0;16;38;64
0;0;13;37
0;0;6;19
0;0;4;16
0;5;12;34
0;13;22;40
26;45;68;110
84;122;132;139
201;255;257;257
258;322;297;266
224;301;257;247
149;219;248;239
46;105;146;138
0;4;21;32
0;0;0;0
0;0;0;0
2;0;0;0
14;1;0;1
37;29;37;49
53;67;97;137
74;108;135;137
109;133;127;134
133;145;135;132
241;268;261;248
261;307;279;256
209;273;254;241
136;190;204;236
25;62;111;127
0;0;20;35
0;0;0;0
0;0;0;0
2;0;0;0
15;3;0;1
35;30;34;54
51;62;84;122
79;115;130;133
101;146;136;136
132;162;155;154
236;299;255;251
258;341;314;278
202;282;250;254
131;198;212;242
29;70;122;137
0;0;28;54
0;0;0;0
0;0;0;0
6;0;0;1
27;13;14;21
44;44;63;96
59;79;115;135
92;129;138;135
119;133;133;136
153;190;202;229
249;306;277;262
254;322;288;261
207;269;246;255
125;160;159;145
20;35;61;86
0;0;1;14
0;0;0;0
0;0;0;0
0;0;0;0
0;0;0;2
0;0;0;2
0;0;2;6
0;0;1;6
0;0;2;6
0;0;6;13
0;13;28;54
159;124;124;135
1447;756;524;394
2599;1104;705;515
2586;1176;728;521
1794;895;597;447
515;378;317;255
0;42;105;138
0;0;3;20
0;0;0;1
0;0;0;1
0;0;0;0
0;0;0;1
0;0;0;10
0;0;0;5
0;7;17;41
130;94;125;129
762;449;342;276
2191;1009;700;506
2830;1249;769;588
2490;1174;724;519
1245;684;454;363
195;235;253;203
0;0;46;83
0;0;0;15
0;0;0;1
0;0;0;2
0;0;0;0
0;0;0;3
0;0;1;10
0;0;7;22
64;62;84;117
260;179;166;159
1601;814;539;425
2766;1188;753;569
2708;1230;741;535
1930;982;637;499
635;429;326;261
0;73;130;135
0;0;15;32
0;0;0;2
0;0;0;1
0;0;0;0
0;0;0;1
0;0;0;4
0;0;0;3
0;3;12;33
113;91;121;127
508;309;260;238
1544;765;546;404
1985;854;575;438
1980;864;579;436
1308;640;468;375
383;269;245;226
0;43;111;133
0;0;22;46
0;0;6;33
0;0;2;12
0;0;4;9
0;2;5;12
2;14;28;47
20;37;62;100
65;98;131;133
146;180;190;202
325;341;311;273
323;355;339;298
229;296;258;243
127;163;163;148
13;29;52;71
0;0;0;2
0;0;0;0
0;0;0;0
6;0;0;0
28;22;25;35
42;44;64;95
65;87;125;134
95;127;133;134
121;145;132;135
185;240;255;244
259;344;337;318
237;336;322;282
191;263;260;250
95;156;149;137
16;35;62;95
0;0;2;20
0;0;0;0
0;0;0;0
7;0;0;0
23;15;14;16
48;50;66;108
66;89;131;138
90;130;137;142
121;142;134;135
201;251;260;255
261;327;311;289
233;319;282;254
169;252;256;248
80;133;140;136
0;5;21;34
0;0;0;2
0;0;0;0
0;0;0;0
4;0;0;1
7;4;6;6
0;4;6;20
0;8;18;33
0;9;18;31
11;34;53;88
0;40;78;126
234;185;170;167
1445;757;539;436
2368;1015;688;512
2315;1017;661;499
1509;748;514;387
390;287;249;237
0;12;52;101
0;0;0;12
0;0;0;0
0;0;0;0
0;0;0;1
0;0;0;1
0;0;0;6
0;0;0;2
0;7;19;34
121;91;123;125
698;413;300;261
2054;952;640;494
2675;1185;742;550
2387;1099;675;502
1268;675;449;364
242;251;233;244
0;20;72;123
0;0;2;22
0;0;0;6
0;0;0;0
0;0;0;4
0;0;0;2
0;0;1;7
0;0;7;16
44;49;66;97
211;166;138;145
1340;732;515;386
2449;1052;701;510
2476;1080;657;501
1829;869;568;407
644;398;312;244
0;81;131;133
0;0;18;36
0;0;0;3
0;0;0;1
0;0;0;2
0;0;1;6
0;0;3;11
0;0;9;18
0;2;13;23
44;54;74;112
238;175;157;146
382;377;336;289
515;437;381;354
501;408;346;312
316;290;266;253
210;168;157;138
71;76;107;115
0;0;17;30
0;0;2;4
16;7;7;5
31;29;34;46
56;72;103;123
81;123;142;140
118;148;135;144
154;193;200;217
245;322;289;255
249;340;313;265
195;273;248;235
125;171;176;179
23;45;79;123
0;0;6;30
0;0;0;0
0;0;0;0
10;0;1;2
30;19;24;40
41;47;62;95
68;94;132;133
89;132;149;138
118;144;135;132
186;241;237;241
255;343;332;310
236;335;321;279
188;262;257;251
93;153;145;135
15;34;58;86
0;0;0;2
0;0;0;0
0;0;0;0
12;0;1;2
25;14;15;17
41;44;55;81
67;89;129;140
90;129;144;141
123;139;132;137
185;247;245;253
259;351;347;334
241;316;302;271
178;251;249;255
85;141;134;138
4;19;34;51
0;0;0;1
0;0;0;0
0;0;0;0
15;1;1;1
27;15;17;19
41;46;60;83
68;94;132;133
90;132;139;139
123;139;135;132
180;236;254;236
262;347;341;326
383;385;352;331
1767;823;556;393
1045;541;381;302
149;178;166;136
0;0;7;15
0;0;0;0
0;0;0;1
0;0;0;0
0;0;0;0
0;0;0;1
0;0;0;1
0;0;1;6
0;8;18;34
109;112;114;126
889;515;386;319
2291;1013;689;513
2804;1216;737;538
2380;1099;661;504
1121;633;447;343
122;203;216;216
0;0;43;92
0;0;0;19
0;0;0;2
0;0;0;0
0;0;0;0
0;0;0;1
0;0;0;0
0;0;0;0
59;0;6;18
197;133;118;132
1291;1076;654;504
2674;2698;1396;859
2770;2960;1670;951
1978;2124;1309;782
552;595;506;384
0;0;45;113
0;0;0;9
0;0;0;0
0;0;0;0
0;0;0;0
0;0;0;0
0;0;0;0
0;0;0;0
0;0;0;2
61;11;17;25
238;181;132;139
1491;1288;768;532
2763;2748;1408;871
2731;2854;1598;951
1816;2017;1270;773
448;725;555;386
0;143;192;210
0;0;57;115
0;0;15;47
0;0;0;15
0;0;0;5
0;0;1;12
0;0;2;7
10;18;29;43
167;129;123;123
1017;566;389;292
2268;987;669;509
2520;1096;675;505
2054;943;617;489
954;526;388;297
148;181;183;153
0;4;39;58
0;0;0;5
0;0;0;1
0;0;0;2
0;0;0;1
0;0;0;6
0;0;1;4
0;0;2;6
0;4;7;15
100;101;127;121
763;458;365;318
1578;759;548;400
1904;836;562;416
1246;630;475;381
650;393;332;260
259;243;219;212
100;137;135;136
41;73;117;127
1;49;101;135
7;49;103;135
36;74;131;133
66;119;135;134
109;166;158;149
230;301;255;246
259;341;321;281
210;289;260;242
134;197;211;237
24;66;119;142
0;0;21;37
0;0;0;0
0;0;0;0
5;0;0;2
23;10;8;21
43;42;55;83
58;76;117;132
83;120;143;137
107;153;137;135
144;190;193;208
319;340;314;278
652;467;388;356
1886;845;567;408
1406;681;469;381
433;292;255;234
0;0;36;92
0;0;0;1
0;0;0;0
0;0;0;0
0;0;0;0
0;0;0;0
0;0;0;0
0;0;0;0
0;0;0;1
1;0;0;2
122;100;121;130
1010;1064;637;464
2453;2830;1476;888
2708;3182;1818;1035
2005;2318;1479;867
592;664;557;385
0;0;37;115
0;0;0;4
0;0;0;0
0;0;0;0
0;0;0;0
0;0;0;0
0;0;0;0
0;0;0;0
0;0;0;0
39;10;18;31
213;225;185;161
1360;1528;904;618
2692;3171;1681;990
2733;3216;1917;1072
1820;2128;1410;845
450;505;494;386
0;0;32;103
0;0;0;2
0;0;0;0
0;0;0;0
0;0;0;0
0;0;0;0
0;0;0;0
0;0;0;0
0;0;0;3
101;89;110;126
457;507;361;286
1905;2180;1183;761
2845;3341;1845;1060
2529;2991;1830;1032
1183;1357;1012;667
70;62;192;222
0;0;0;32
0;0;0;0
0;0;0;0
0;0;0;0
0;0;0;0
0;0;0;0
0;0;0;0
0;0;0;2
31;0;1;6
145;127;133;131
989;1016;656;480
2399;2645;1351;839
2744;2705;1527;917
2170;1891;1199;747
783;871;613;448
0;243;253;240
0;65;132;139
0;14;67;120
0;2;32;77
0;5;22;56
3;20;32;65
38;63;97;132
67;116;136;133
129;166;165;169
286;299;256;256
260;317;278;255
202;266;252;251
131;172;178;182
27;50;91;133
0;0;12;41
0;0;0;1
0;0;0;0
3;0;0;0
21;6;5;3
36;29;33;44
62;77;113;130
88;130;131;132
115;138;136;138
143;175;178;179
249;297;260;257
255;313;275;252
199;263;245;249
127;178;181;190
22;48;77;120
0;0;4;20
0;0;0;0
0;0;0;0
5;0;0;0
27;18;19;29
39;39;55;80
58;76;117;131
87;129;134;132
120;149;137;138
167;213;227;247
253;314;296;263
252;319;288;261
194;255;240;255
109;169;157;145
16;35;56;77
0;0;1;12
0;0;0;0
0;0;0;0
6;0;0;0
22;14;14;17
45;50;68;108
64;90;132;140
95;131;133;131
122;147;138;135
196;248;260;245
259;323;314;291
246;323;297;259
303;287;259;249
304;229;238;205
250;186;177;145
0;0;21;33
0;0;0;0
0;0;0;0
0;0;0;1
0;0;0;0
0;0;0;0
0;0;0;0
0;0;0;1
0;0;0;0
53;0;1;5
185;131;117;120
1390;1491;864;591
2570;3009;1571;945
2525;2983;1714;983
1646;1917;1273;779
361;385;386;322
0;0;3;47
0;0;0;0
0;0;0;0
0;0;0;0
0;0;0;0
0;0;0;0
0;0;0;0
0;0;0;0
0;0;0;0
52;2;6;15
186;163;130;116
1274;1400;832;544
2573;3011;1563;938
2616;3085;1800;1019
1765;2047;1346;814
436;488;484;383
0;0;37;106
0;0;0;12
0;0;0;0
0;0;0;0
0;0;0;0
0;0;0;0
0;0;0;0
0;0;0;0
0;0;0;2
76;36;44;62
268;244;182;158
1586;1654;949;624
2618;2851;1512;915
2459;2636;1515;896
1475;1761;1110;681
259;507;437;341
0;0;39;103
0;0;0;19
0;0;0;1
0;0;0;2
0;0;0;1
0;0;1;6
0;0;2;9
0;0;4;5
0;4;5;16
23;35;49;74
130;128;128;131
475;382;335;278
450;404;357;335
633;460;387;326
262;276;257;245
103;132;137;139
24;34;54;82
0;0;2;12
3;0;1;6
18;4;3;2
32;27;32;38
60;74;106;123
80;123;141;141
117;149;139;134
136;167;157;145
248;289;251;249
260;336;304;262
203;276;253;242
132;189;205;217
29;66;117;140
0;0;24;52
0;0;0;0
0;0;0;0
10;0;1;1
31;18;25;33
48;54;73;113
66;91;129;140
92;131;141;136
120;143;134;138
193;250;252;255
259;349;341;321
246;319;306;266
191;255;264;238
90;145;137;136
13;29;58;87
0;0;2;12
0;0;0;0
0;0;0;0
11;0;0;0
28;25;28;44
42;52;73;109
67;97;128;132
102;135;138;133
125;148;137;132
217;261;243;256
257;347;323;301
232;326;297;259
329;302;258;255
768;394;292;233
130;149;135;138
0;0;12;28
0;0;0;0
0;0;0;0
0;0;0;0
0;0;0;0
0;0;0;0
0;0;0;0
0;0;0;0
0;0;0;2
97;56;71;108
582;591;386;308
1952;2302;1236;770
2672;3270;1822;1049
2296;2742;1712;988
993;1133;894;612
41;5;130;166
0;0;0;12
0;0;0;0
0;0;0;0
0;0;0;0
0;0;0;0
0;0;0;0
0;0;0;0
0;0;0;1
0;0;0;1
118;87;106;120
668;680;453;352
2119;2341;1225;761
2902;3308;1825;1035
2444;2760;1700;968
1068;1155;884;602
19;0;133;161
0;0;0;13
0;0;0;0
0;0;0;0
0;0;0;0
0;0;0;0
0;0;0;0
0;0;0;0
0;0;0;1
4;0;0;0
119;69;88;128
559;405;272;224
1771;1216;740;536
2252;2167;1126;748
2044;1629;953;639
1074;872;598;433
386;363;324;256
98;185;199;184
0;69;131;138
0;49;108;132
9;53;120;135
5;52;119;138
47;101;139;132
92;136;135;137
197;256;245;260
257;329;308;279
229;313;271;244
165;248;245;248
69;125;130;134
2;14;39;58
0;0;0;10
0;0;0;0
0;0;0;0
19;8;9;12
38;35;47;73
54;68;100;142
77;116;132;134
115;141;132;134
135;166;162;157
249;291;259;252
259;332;302;261
205;278;261;252
131;181;197;203
28;58;101;140
0;0;14;31
0;0;0;0
0;0;0;0
5;0;0;0
21;7;3;3
36;30;32;41
55;68;92;134
78;118;132;135
108;155;145;137
141;185;193;206
250;326;302;271
259;330;315;279
208;278;266;256
130;179;192;193
25;49;90;133
0;0;5;22
0;0;0;0
0;0;0;0
3;0;0;0
27;15;18;28
46;49;71;105
61;86;126;132
86;129;137;136
117;145;136;132
175;228;247;248
256;341;329;304
245;315;295;255
406;340;292;259
509;1267;750;502
269;267;252;245
0;0;0;32
0;0;0;0
0;0;0;0
0;0;0;0
0;0;0;0
0;0;0;0
0;0;0;0
0;0;0;0
0;0;0;1
73;81;91;121
289;332;261;225
1648;1952;1084;735
2779;3346;1808;1049
2603;3108;1859;1060
1396;1646;1175;735
269;310;333;285
0;0;0;32
0;0;0;0
0;0;0;0
0;0;0;0
0;0;0;0
0;0;0;0
0;0;0;3
45;54;66;89
226;270;210;216
643;764;511;381
2064;2442;1315;855
2948;3515;1973;1114
2589;3076;1903;1064
1265;1483;1104;671
239;266;272;238
0;0;0;28
0;0;0;0
0;0;0;0
0;0;0;0
0;0;0;0
0;0;0;0
43;59;74;109
220;270;206;216
460;555;383;308
1761;2078;1121;751
2917;3496;1924;1093
2717;3240;1978;1115
1561;1844;1300;771
415;498;493;387
0;0;32;104
0;0;0;4
0;0;0;0
0;0;0;0
0;0;0;0
0;0;0;2
44;67;81;118
212;264;187;183
435;520;378;282
1577;1880;1063;724
2823;3378;1831;1057
2704;3216;1949;1088
1672;1986;1384;834
474;552;503;383
0;0;31;95
0;0;0;5
0;0;0;0
0;0;0;0
0;0;0;0
0;0;0;0
0;0;3;4
86;113;129;117
296;349;265;225
762;894;599;445
2112;2509;1324;840
2829;3380;1905;1080
2415;2884;1805;1031
1099;1283;987;650
166;189;260;253
0;0;0;21
0;0;0;0
0;0;0;0
0;0;0;0
0;0;0;0
0;0;0;0
0;0;0;2
62;39;45;63
222;238;213;201
761;862;582;405
1791;2295;1228;765
2305;2936;1623;947
1806;2373;1440;851
885;1068;749;513
245;256;250;254
0;91;129;132
0;39;89;130
9;38;83;130
43;68;118;139
70;115;142;140
107;136;131;135
128;153;148;141
252;291;255;265
263;326;306;278
218;290;256;256
145;205;227;249
33;82;130;127
0;0;14;19
0;0;0;0
0;0;0;0
0;0;0;0
14;3;0;1
33;33;36;55
50;63;85;126
79;119;134;134
102;147;133;138
128;176;178;179
246;302;271;265
258;324;311;286
218;290;260;253
133;197;208;224
27;63;109;130
0;0;16;39
0;0;0;0
0;0;0;0
6;0;0;2
22;13;12;22
35;30;39;58
53;66;95;131
74;112;131;140
104;151;138;140
157;205;224;247
261;324;316;299
262;329;315;293
213;279;266;256
127;171;183;183
12;30;59;88
0;0;0;3
0;0;0;0
0;0;0;0
6;0;0;1
23;11;11;21
35;30;39;58
53;67;95;130
75;113;126;133
106;150;137;140
149;195;209;232
256;333;325;311
250;315;303;262
202;267;256;243
122;159;157;145
14;21;34;45
0;0;0;0
0;0;0;0
0;0;0;0
7;0;0;2
21;11;12;21
34;29;38;55
59;76;110;128
84;122;134;131
115;153;142;135
157;208;227;251
256;340;327;314
254;319;311;285
202;269;259;262
118;166;165;165
5;21;37;52
0;0;0;2
0;0;0;0
0;0;0;0
8;0;0;1
21;5;2;2
30;22;26;33
54;64;92;123
71;106;138;140
102;143;134;132
139;167;164;157
249;290;254;249
254;339;314;279
206;280;257;258
127;184;192;216
14;45;84;123
0;0;4;16
0;0;0;0
0;0;0;0
2;0;0;1
16;2;0;0
35;31;39;50
54;70;102;119
74;113;140;126
107;135;134;131
133;159;152;145
249;287;256;255
263;320;298;267
207;272;250;240
129;178;192;198
6;29;59;97
0;0;0;9
0;0;0;0
0;0;0;0
0;0;0;0
8;0;0;0
21;13;8;8
41;42;57;86
57;78;113;127
81;124;143;140
111;137;129;142
193;247;250;253
258;333;327;310
250;319;302;267
195;256;258;239
102;158;153;133
2;14;33;36
0;0;0;0
0;0;0;0
0;0;0;0
5;0;0;0
24;14;13;24
37;37;45;65
57;76;109;129
81;125;147;143
112;136;142;132
192;247;254;256
256;330;326;309
253;312;298;262
184;256;250;252
92;140;135;135
0;3;17;19
0;0;0;0
0;0;0;0
0;0;0;0
2;0;0;0
22;11;12;21
32;29;38;58
52;67;92;126
80;121;132;140
110;158;145;136
157;207;222;242
259;333;325;316
253;335;323;296
191;262;260;244
113;151;153;135
10;15;35;47
0;0;0;0
0;0;0;0
0;0;0;0
2;0;0;0
20;4;3;3
38;32;42;60
52;62;88;127
77;116;132;135
107;134;138;139
133;169;168;172
257;304;271;257
258;319;298;263
212;282;266;256
131;175;190;197
6;26;57;95
0;0;1;12
0;0;0;0
0;0;0;0
0;0;0;0
6;0;0;0
21;13;13;16
45;50;70;105
63;87;131;137
89;128;147;135
122;139;137;137
217;263;251;242
263;330;321;297
234;321;289;248
165;250;245;246
54;126;136;128
0;3;13;17
0;0;0;0
0;0;0;0
0;0;0;0
6;0;0;0
21;12;10;7
39;38;47;61
63;84;118;127
82;128;134;135
113;139;135;139
200;252;245;258
260;331;323;305
249;314;290;258
189;257;256;248
88;137;134;131
0;5;17;32
0;0;0;0
0;0;0;0
0;0;0;0
10;0;0;1
21;9;3;3
33;30;32;40
56;73;104;115
77;115;134;129
105;152;134;142
151;201;210;229
255;337;321;303
257;331;328;304
201;267;263;252
120;157;158;146
5;14;25;33
0;0;0;0
0;0;0;0
0;0;0;0
0;0;0;0
14;2;0;1
33;27;34;52
47;58;81;118
70;99;134;134
100;139;135;130
130;148;142;128
250;309;270;260
258;323;309;278
214;289;255;251
135;199;215;228
30;66;117;130
0;0;5;11
0;0;0;0
0;0;0;0
0;0;0;0
8;0;0;0
22;15;10;12
39;40;52;75
60;82;120;136
89;130;133;137
121;150;137;141
233;283;254;253
265;349;342;329
229;324;301;265
160;244;256;241
55;121;135;134
0;1;14;31
0;0;0;0
0;0;0;0
0;0;0;0
5;0;0;0
22;11;13;11
37;37;43;64
56;78;110;131
83;126;138;141
112;139;138;141
199;252;244;258
264;337;330;330
248;331;316;284
178;259;264;253
69;130;138;137
0;4;16;24
0;0;0;0
0;0;0;0
0;0;0;0
5;0;0;0
23;14;13;24
40;42;61;96
59;85;124;136
81;127;136;136
112;138;134;136
191;246;250;252
259;333;330;314
250;335;321;288
187;255;250;245
89;140;132;134
0;4;13;21
0;0;0;0
0;0;0;0
0;0;0;0
2;0;0;2
19;9;9;12
34;36;45;71
53;73;108;130
74;116;134;132
101;147;135;133
147;191;209;233
260;322;307;293
260;324;310;280
205;273;258;253
121;160;161;147
2;13;23;30
0;0;0;0
0;0;0;0
0;0;0;0
0;0;0;0
8;0;0;0
31;24;27;39
43;50;64;101
70;100;137;134
95;134;139;139
125;158;146;135
246;281;254;250
262;341;330;310
221;306;278;253
148;221;243;249
31;86;129;139
0;0;12;32
0;0;0;0
0;0;0;0
0;0;0;0
13;1;1;9
22;15;14;21
40;43;57;83
58;82;122;142
85;128;137;139
119;147;136;150
226;271;243;256
264;332;315;288
237;323;290;256
167;246;256;237
53;120;137;142
0;3;17;24
0;0;0;0
0;0;0;0
0;0;0;0
9;1;1;2
20;11;6;3
34;37;42;56
58;78;117;133
81;121;145;138
119;135;130;133
177;228;254;234
261;332;333;322
249;331;320;285
191;264;262;261
87;144;138;135
0;11;23;41
0;0;0;1
0;0;0;0
0;0;0;0
1;0;0;0
20;11;12;21
33;29;39;56
52;66;93;126
77;123;130;141
116;146;135;135
172;219;244;243
257;349;351;346
251;320;314;293
200;265;261;258
108;163;164;152
8;19;43;61
0;0;0;2
0;0;0;0
0;0;0;0
2;0;0;1
15;1;1;0
27;21;21;23
52;64;87;126
71;105;136;134
98;141;137;137
131;160;151;138
252;292;259;251
261;329;311;287
221;294;260;248
134;197;209;223
15;50;95;132
0;0;9;20
0;0;0;0
0;0;0;0
0;0;0;0
11;4;1;9
21;16;17;23
39;40;58;84
65;90;130;145
94;133;135;136
124;147;136;147
229;275;254;243
260;341;333;308
226;314;289;249
159;243;245;248
42;113;150;131
0;5;22;43
0;0;0;0
0;0;0;0
0;0;0;0
6;0;0;0
26;20;27;39
38;46;62;94
59;81;117;136
83;128;139;139
115;146;135;137
210;254;253;255
261;327;314;286
244;302;267;259
175;245;249;234
64;128;133;134
0;2;12;18
0;0;0;0
0;0;0;0
0;0;0;0
4;0;0;0
17;9;5;2
36;37;47;73
57;76;117;133
78;122;138;133
115;150;137;132
163;207;225;248
259;323;316;297
256;324;314;279
202;269;259;252
111;146;144;133
0;3;10;11
0;0;0;0
0;0;0;0
0;0;0;0
1;0;0;0
12;1;0;0
22;16;16;21
41;45;56;83
66;94;128;131
90;130;141;138
122;147;134;137
244;273;250;254
260;340;324;297
224;314;290;265
154;236;260;246
31;96;133;127
0;1;21;33
0;0;0;0
0;0;0;0
0;0;0;0
7;0;0;1
20;7;5;4
42;44;56;81
57;75;115;132
87;130;134;136
117;147;138;131
192;251;250;249
263;345;348;353
254;318;308;290
188;252;257;257
90;140;138;137
0;4;14;20
0;0;0;0
0;0;0;0
0;0;0;0
0;0;0;0
22;9;10;12
31;28;33;44
47;62;84;122
75;117;129;135
109;135;135;131
141;169;173;174
253;301;262;259
259;336;309;268
199;273;252;240
124;175;182;183
12;25;52;77
0;0;0;0
0;0;0;0
0;0;0;0
1;0;0;0
16;1;2;1
24;20;21;26
51;59;84;118
66;98;136;128
101;138;130;135
127;145;135;131
247;279;257;254
262;344;337;323
219;306;279;260
135;213;236;227
21;69;118;130
0;0;12;28
0;0;0;0
0;0;0;0
2;0;0;0
14;1;2;0
33;29;39;49
45;55;80;120
76;110;126;132
100;142;137;131
130;159;155;145
258;300;266;257
263;331;317;292
222;297;264;257
139;198;220;247
10;46;96;143
0;0;5;15
0;0;0;0
0;0;0;0
1;0;0;0
6;0;0;0
21;13;13;14
37;38;46;68
62;79;117;132
85;127;137;138
120;147;132;146
225;266;259;256
264;330;315;295
236;321;289;249
166;248;255;235
52;123;134;141
0;4;16;22
0;0;0;0
0;0;0;0
0;0;0;0
11;1;2;1
21;9;6;5
32;32;37;52
53;68;96;130
74;117;126;132
104;153;136;139
166;223;243;249
259;331;326;319
250;310;296;263
197;260;251;249
102;159;149;138
0;11;18;24
0;0;0;0
0;0;0;0
0;0;0;0
5;0;0;2
19;9;9;16
30;29;31;44
48;61;85;122
77;113;129;133
103;146;137;139
142;184;194;210
253;309;282;260
256;344;330;301
201;276;258;257
128;175;179;176
5;21;45;62
0;0;0;0
0;0;0;0
0;0;0;0
1;0;0;1
15;5;2;4
28;25;28;45
43;51;73;107
63;95;132;131
95;133;128;134
126;141;137;135
241;269;258;251
263;323;307;277
234;315;285;259
156;230;250;228
37;96;137;136
0;1;19;34
0;0;0;0
0;0;0;0
0;0;0;0
7;0;0;0
26;17;18;32
45;50;70;113
62;87;129;142
85;128;145;134
120;140;139;135
227;269;247;260
270;340;332;328
242;301;273;256
169;243;238;238
53;121;146;139
0;2;10;17
0;0;0;0
0;0;0;0
0;0;0;0
5;0;0;0
25;16;18;33
43;50;67;110
61;84;123;131
86;131;136;144
120;142;135;146
213;256;249;253
261;329;324;302
250;314;294;264
187;258;253;235
73;133;142;139
0;2;16;22
0;0;0;0
0;0;0;0
0;0;0;0
10;1;1;1
21;10;9;5
40;42;55;84
55;75;110;129
81;122;143;132
115;142;131;147
187;242;234;260
256;331;321;304
253;315;302;271
186;256;255;255
88;141;137;136
0;2;13;21
0;0;0;0
0;0;0;0
0;0;0;0
2;0;0;2
17;7;8;6
35;37;45;65
55;72;110;134
77;121;135;130
109;139;136;131
134;166;166;165
252;290;259;252
260;341;321;288
204;281;249;255
130;176;180;195
7;31;62;103
0;0;1;14
0;0;0;0
0;0;0;0
0;0;0;0
20;8;8;12
35;34;42;61
48;61;89;129
69;101;137;137
106;148;135;137
135;163;157;145
256;301;267;261
261;327;315;289
213;286;260;247
128;201;218;238
6;49;96;131
0;0;5;17
0;0;0;0
0;0;0;0
0;0;0;0
8;0;0;0
21;12;6;3
36;37;40;53
61;85;114;138
82;130;135;138
118;148;135;141
209;259;250;258
265;345;341;343
248;315;299;266
191;258;259;245
82;132;137;139
0;1;15;22
0;0;0;0
0;0;0;0
0;0;0;0
7;0;1;2
17;5;2;2
30;26;25;33
52;66;93;127
73;108;135;137
102;146;135;134
140;181;193;208
253;306;278;253
260;341;321;281
201;278;255;255
125;175;180;190
11;32;63;101
0;0;0;3
0;0;0;0
0;0;0;0
1;0;0;0
19;8;9;12
33;33;41;68
47;62;88;133
74;113;130;138
108;133;134;132
132;160;159;156
255;295;260;261
259;318;297;268
203;266;256;240
133;174;183;179
11;29;57;82
0;0;0;1
0;0;0;0
0;0;0;0
0;0;0;0
9;0;0;0
21;13;6;3
43;46;60;87
62;82;119;139
86;125;140;134
116;144;131;134
204;259;251;255
261;356;360;365
245;323;317;296
185;255;262;250
84;133;128;129
0;0;7;9
0;0;0;0
0;0;0;0
0;0;0;0
2;0;0;1
12;1;0;0
33;30;38;49
45;55;77;120
64;97;130;132
96;132;135;136
123;138;138;134
244;291;256;257
261;348;338;323
210;296;262;253
138;204;224;246
20;64;117;130
0;0;5;11
0;0;0;0
0;0;0;0
0;0;0;0
12;3;1;8
22;16;13;20
47;53;73;109
65;94;131;137
95;133;140;133
126;138;138;136
233;281;252;246
268;338;332;318
238;326;303;268
165;252;256;237
49;121;134;133
0;0;11;11
0;0;0;0
0;0;0;0
0;0;0;0
10;0;0;0
22;10;11;10
40;44;57;78
61;81;115;138
84;132;135;138
118;147;135;145
231;275;253;244
261;341;333;312
233;328;308;271
158;247;246;252
48;123;135;140
0;4;18;30
0;0;0;0
0;0;0;0
0;0;0;0
7;0;0;0
26;19;20;33
45;51;71;108
63;89;132;140
87;131;147;138
121;140;133;134
210;254;257;256
261;329;314;292
235;325;291;251
169;251;257;250
63;128;128;136
0;9;18;36
0;0;0;0
0;0;0;0
0;0;0;0
5;0;0;0
27;19;19;28
37;39;55;79
57;76;115;127
81;122;144;141
111;156;146;138
195;259;243;253
261;355;356;359
246;321;316;299
185;259;264;256
84;142;139;136
0;4;9;11
0;0;0;0
0;0;0;0
0;0;0;0
2;0;0;1
21;10;12;18
37;40;51;75
52;69;101;135
75;118;137;141
108;156;143;137
171;231;252;242
254;351;351;347
253;345;342;332
194;272;258;253
114;155;153;136
6;12;29;33
0;0;0;0
0;0;0;0
0;0;0;0
2;0;0;2
20;11;13;15
36;38;48;74
58;79;119;134
86;127;132;135
115;156;150;136
165;227;250;259
259;350;344;341
252;346;342;331
194;267;268;255
104;162;157;138
2;14;31;45
0;0;0;0
0;0;0;0
0;0;0;0
5;0;0;1
20;13;11;14
37;38;48;73
53;68;101;144
76;115;134;138
105;151;137;139
170;228;246;260
254;349;341;339
254;319;311;281
197;268;265;253
99;167;164;150
8;29;53;74
0;0;0;1
0;0;0;0
0;0;0;0
0;0;0;0
14;2;0;2
29;25;30;46
47;53;73;110
73;108;134;138
99;140;136;137
130;153;144;135
252;282;257;255
256;317;293;261
214;282;255;255
132;194;200;209
16;50;89;130
0;0;6;25
0;0;0;0
0;0;0;0
0;0;0;0
8;0;0;0
20;12;6;4
36;37;45;62
54;75;105;124
80;121;138;133
110;152;139;139
202;257;250;264
261;335;329;319
250;335;324;293
178;260;256;250
80;133;128;139
0;1;7;4
0;0;0;0
0;0;0;0
0;0;0;0
0;0;0;0
14;1;1;0
35;29;39;48
55;67;98;134
76;118;134;140
108;135;132;131
129;159;156;154
253;317;271;247
255;322;299;266
207;275;254;251
132;181;191;199
13;41;79;125
0;0;1;6
0;0;0;0
0;0;0;0
0;0;0;0
8;0;0;0
21;14;11;8
38;38;47;64
63;85;122;123
93;130;135;129
120;140;136;139
206;259;258;261
263;328;317;299
245;306;278;255
178;247;254;257
70;130;137;137
0;8;29;41
0;0;0;0
0;0;0;0
0;0;0;0
10;1;1;1
21;10;6;4
32;31;37;48
52;67;93;127
80;122;128;130
111;135;131;131
163;204;218;248
254;340;327;315
256;323;315;292
195;267;264;260
113;160;163;155
2;15;33;52
0;0;0;0
0;0;0;0
0;0;0;0
5;0;0;1
20;12;10;16
31;28;37;53
52;64;91;132
74;112;134;141
105;149;132;134
161;208;231;253
259;340;338;326
253;322;314;285
200;265;258;242
119;150;154;134
0;3;15;13
0;0;0;0
0;0;0;0
0;0;0;0
1;0;0;0
12;1;0;0
26;17;20;20
47;56;76;118
72;108;130;130
98;136;138;139
125;152;140;130
252;279;260;256
261;344;340;325
218;307;280;260
135;204;227;249
21;66;123;130
0;0;12;22
0;0;0;0
0;0;0;0
0;0;0;0
16;6;7;6
25;19;21;22
43;50;66;95
68;100;134;133
97;132;136;137
120;164;149;133
241;282;255;256
264;331;314;289
228;311;270;244
150;224;249;239
30;88;141;137
0;0;15;19
0;0;0;0
0;0;0;0
0;0;0;0
12;1;1;2
31;25;29;39
45;52;71;104
66;94;126;133
95;133;131;140
122;138;134;133
229;273;253;242
269;337;331;317
233;320;289;250
165;250;250;256
43;115;134;128
0;3;10;16
0;0;0;0
0;0;0;0
0;0;0;0
9;0;0;0
21;13;6;4
42;46;58;89
59;82;121;140
82;128;136;136
114;143;138;136
199;256;252;259
261;329;329;315
248;332;318;285
178;251;256;260
75;134;136;138
0;2;13;20
0;0;0;0
0;0;0;0
0;0;0;0
1;0;0;0
14;3;3;1
35;32;36;54
47;61;86;127
69;105;137;137
107;135;135;137
132;188;184;190
253;316;290;265
258;325;307;272
205;277;260;258
126;168;182;183
1;16;39;58
0;0;0;0
0;0;0;0
0;0;0;0
0;0;0;0
5;0;0;0
29;19;26;33
48;54;74;115
70;103;136;131
96;134;133;137
120;162;153;136
228;289;248;253
266;341;328;316
233;317;285;248
158;241;255;244
47;122;130;131
0;3;12;16
0;0;0;0
0;0;0;0
0;0;0;0
5;0;0;0
21;13;10;7
36;41;44;64
62;87;124;131
93;127;137;134
120;135;130;134
200;250;258;262
259;327;321;303
247;328;307;266
170;252;252;250
64;128;146;141
0;0;11;17
0;0;0;0
0;0;0;0
0;0;0;0
6;0;0;1
22;15;13;24
40;44;58;96
55;78;118;134
81;122;135;136
111;134;148;138
191;247;252;257
257;333;327;314
250;337;329;309
182;255;263;249
83;136;132;137
0;6;22;33
0;0;0;0
0;0;0;0
0;0;0;0
1;0;0;0
16;8;7;14
35;34;39;61
46;62;89;126
77;115;133;138
107;133;138;134
138;169;171;174
253;306;271;254
256;345;322;293
199;276;253;258
125;180;186;199
3;22;46;78
0;0;0;2
0;0;0;0
0;0;0;0
0;0;0;0
9;0;0;1
25;14;14;17
41;44;57;79
67;92;125;132
92;128;134;131
125;142;138;139
210;252;250;254
261;326;314;289
241;300;269;257
177;253;246;259
68;128;127;132
0;0;9;12
0;0;0;0
0;0;0;0
0;0;0;0
10;0;0;1
20;7;5;3
41;40;48;70
63;84;117;128
88;129;132;134
118;141;131;134
165;207;226;250
263;317;305;278
250;340;321;282
199;265;261;240
109;165;165;144
1;16;30;38
0;0;0;0
0;0;0;0
0;0;0;0
2;0;0;1
19;11;10;12
31;29;33;46
51;62;86;126
79;120;136;140
115;146;138;138
151;192;207;223
256;338;329;318
257;331;328;305
200;269;268;248
121;159;165;149
11;23;44;59
0;0;0;1
0;0;0;0
0;0;0;0
4;0;0;1
20;11;12;15
38;38;52;77
51;70;102;134
75;118;137;139
103;154;137;135
158;212;228;250
256;342;337;324
250;346;341;321
194;272;257;249
110;154;150;137
3;9;27;30
0;0;0;0
0;0;0;0
0;0;0;0
0;0;0;0
17;8;9;12
27;23;24;33
53;64;89;130
71;105;136;143
101;142;134;137
138;165;165;159
253;294;259;257
253;341;322;297
210;294;267;254
130;190;207;229
10;44;88;136
0;0;7;18
0;0;0;0
0;0;0;0
0;0;0;0
11;2;0;2
31;28;35;46
49;64;90;127
68;100;135;138
102;143;136;139
127;174;167;151
251;302;271;256
260;331;319;289
210;282;252;255
137;190;199;204
16;50;93;136
0;0;4;8
0;0;0;0
0;0;0;0
0;0;0;0
8;0;0;1
30;23;31;41
40;48;66;104
68;96;134;134
89;129;133;132
121;147;135;135
231;277;260;249
268;328;324;305
232;314;287;257
166;252;252;233
50;123;139;126
0;5;21;29
0;0;0;0
0;0;0;0
0;0;0;0
14;1;1;1
22;12;13;15
38;39;49;69
59;80;114;126
91;130;135;146
120;142;139;137
222;266;248;246
266;328;323;304
239;304;277;258
173;253;250;256
60;131;133;143
0;4;17;28
0;0;0;0
0;0;0;0
0;0;0;0
4;0;0;0
24;16;18;33
39;44;62;101
67;91;126;132
94;127;131;135
124;139;137;135
198;252;246;245
258;328;323;297
245;306;280;255
179;249;258;251
78;133;133;133
0;8;25;36
0;0;0;1
0;0;0;0
0;0;0;0
10;0;1;1
29;17;25;32
38;43;57;81
63;90;127;136
83;132;137;132
118;150;140;133
192;253;259;247
264;340;338;334
253;313;304;269
179;251;247;251
81;135;135;137
0;5;17;27
0;0;0;0
0;0;0;0
0;0;0;0
4;0;0;0
20;10;10;20
32;31;37;55
49;64;88;130
74;112;133;138
108;139;133;131
167;208;233;256
259;321;316;308
255;322;308;273
201;266;255;244
105;163;157;145
5;17;39;49
0;0;0;0
0;0;0;0
0;0;0;0
4;0;0;1
20;12;13;16
39;40;54;79
53;70;105;140
75;116;139;135
105;152;138;140
165;221;244;242
261;321;315;291
254;314;295;256
192;255;250;256
109;166;160;139
5;22;38;53
0;0;0;0
0;0;0;0
0;0;0;0
2;0;0;1
20;8;11;12
26;26;31;41
45;57;77;114
75;111;126;135
103;145;140;136
142;182;194;218
255;308;282;259
257;317;295;260
205;269;254;246
120;178;182;183
6;31;62;102
0;0;1;12
0;0;0;0
0;0;0;0
1;0;0;0
19;8;9;12
34;35;47;73
55;71;110;128
79;121;131;142
115;137;128;137
144;174;177;176
253;304;269;263
257;336;307;269
197;270;255;244
119;181;188;186
1;22;48;76
0;0;0;4
0;0;0;0
0;0;0;0
1;0;0;0
8;0;0;0
22;14;8;10
36;38;45;62
63;84;122;130
93;127;137;135
122;138;134;137
208;258;256;255
262;345;344;330
241;309;293;267
170;246;259;243
60;121;153;140
0;1;18;23
0;0;0;0
0;0;0;0
0;0;0;0
4;0;0;0
16;6;5;3
30;26;31;42
49;61;83;122
71;108;139;138
107;133;128;133
154;190;205;229
254;329;310;285
252;322;304;266
196;262;256;247
118;155;150;137
7;18;33;55
0;0;0;0
0;0;0;0
0;0;0;0
1;0;0;1
15;6;6;6
25;21;21;24
49;61;87;124
66;98;134;132
99;137;134;134
126;142;134;135
253;285;257;262
270;339;332;317
226;307;273;247
147;214;237;223
23;75;131;132
0;0;10;16
0;0;0;0
0;0;0;0
0;0;0;0
19;6;9;9
28;21;23;27
44;51;68;101
72;103;132;137
98;133;146;136
127;138;132;134
253;282;264;256
270;337;332;316
226;305;271;253
149;215;242;228
26;77;131;134
0;0;13;22
0;0;0;0
0;0;0;0
0;0;0;0
6;0;0;0
22;14;14;18
47;51;71;107
63;89;131;141
89;130;137;137
123;142;138;139
232;280;259;255
265;354;356;356
226;320;299;261
164;250;255;231
42;119;139;131
0;8;27;43
0;0;0;0
0;0;0;0
0;0;0;0
9;1;1;2
21;13;8;6
37;38;45;61
62;83;120;130
83;127;137;139
114;141;137;134
194;248;253;241
261;350;356;354
249;326;324;304
186;257;256;239
89;139;137;132
0;5;19;30
0;0;0;0
0;0;0;0
0;0;0;0
1;0;0;0
22;10;12;20
39;39;51;84
53;69;105;139
76;118;138;134
115;146;133;139
177;228;251;258
259;326;317;298
253;312;290;256
198;262;249;242
102;162;154;134
2;14;28;45
0;0;0;0
0;0;0;0
0;0;0;0
6;0;0;2
20;12;12;21
31;32;40;57
52;66;92;126
80;122;132;146
107;158;139;141
163;223;245;246
259;349;351;351
252;321;314;294
195;264;260;256
111;153;157;138
8;15;34;46
0;0;0;1
0;0;0;0
0;0;0;0
3;0;0;1
20;8;10;12
35;35;47;73
55;73;110;131
78;122;134;135
114;136;130;134
148;182;189;199
257;312;283;255
263;330;307;275
208;273;252;239
122;157;155;146
1;7;18;24
0;0;0;0
0;0;0;0
0;0;0;0
0;0;0;0
15;5;6;6
25;21;21;24
48;57;78;120
68;98;129;132
90;132;139;143
123;152;138;142
252;282;258;255
273;329;323;296
230;311;282;255
149;226;247;247
39;102;136;134
0;1;15;33
0;0;0;0
0;0;0;0
0;0;0;0
11;0;0;0
22;15;14;17
40;44;61;83
60;85;121;132
87;128;141;129
119;143;134;139
239;264;255;257
269;328;317;301
235;318;292;254
157;239;257;248
51;121;134;133
0;0;6;5
0;0;0;0
0;0;0;0
0;0;0;0
5;0;0;0
26;15;19;28
44;48;68;100
65;91;128;133
83;128;137;138
115;146;137;137
203;254;259;249
261;351;357;357
243;318;311;292
177;253;254;238
77;135;135;137
0;3;9;12
0;0;0;0
0;0;0;0
0;0;0;0
1;0;0;0
14;3;1;0
27;21;21;23
53;63;88;126
71;105;138;136
110;132;128;135
134;158;157;164
257;296;262;264
258;318;296;268
208;275;259;247
130;178;184;183
12;30;59;84
0;0;0;2
0;0;0;0
0;0;0;0
0;0;0;0
8;0;0;0
21;11;6;5
44;48;62;88
62;83;119;135
85;128;135;136
115;145;135;136
201;257;244;252
262;335;323;297
248;312;288;250
184;260;254;240
80;133;136;139
0;4;20;24
