## File generated by myo_cap software
## Available from github.com/ddantas/myo_cap
## Timestamp: 2018-05-23_20-57-32
##
## EMG capture settings##
# sampleRate: 2000.0
# channelsPerBoard: 4.0
# nBoards: 1.0
# bitsPerSample: 12.0
##
## Data
## t; ch0; ch1; ch2; ch3
1 0 0 0
6 0 0 0
15 3 0 0
41 41 42 46
109 133 128 136
171 223 248 241
249 324 311 272
251 335 321 275
202 279 256 246
131 189 209 212
0 31 50 70
0 0 0 0
0 0 0 0
0 0 0 0
0 0 0 0
0 0 0 0
0 0 0 0
5 0 0 0
10 0 0 0
23 14 6 0
58 69 86 118
125 1330 0
0 0 0 0
0 0 0 0
4 0 0 0
7 0 0 0
16 2 0 0
43 41 40 44
107 132 130 129
168 218 249 248
248 326 315 285
256 313 303 260
207 269 252 245
132 194 210 226
2 36 52 86
0 0 0 0
0 0 0 0
0 0 0 0
0 0 0 0
0 0 0 0
0 0 0 0
0 0 0 0
6 0 0 0
16 3 0 0
42 41 40 45
109 131 131 131
170 213 240 225
253 305 289 253
255 307 281 256
200 263 248 261
133 197 213 233
8 42 74 114
0 0 0 0
0 0 0 0
0 0 0 0
0 0 0 0
0 0 0 0
0 0 0 0
3 0 0 0
7 0 0 0
22 13 4 0
57 68 81 110
124 128 141 131
182 229 255 236
254 310 292 258
251 328 309 262
194 260 257 262
125 167 168 158
0 3 2 0
0 0 0 0
0 0 0 0
0 0 0 0
0 0 0 0
0 0 0 0
0 0 0 0
1 0 0 0
5 0 0 0
21 11 2 0
52 60 71 94
114 130 131 146
179 227 246 249
255 309 288 259
252 331 309 267
195 262 257 262
132 182 193 202
0 14 29 33
0 0 0 0
0 0 0 0
0 0 0 0
0 0 0 0
0 0 0 0
0 0 0 0
1 0 0 0
9 0 0 0
19 7 0 0
54 57 69 91
117 130 131 144
183 231 254 232
255 316 299 264
252 314 291 252
201 260 258 255
129 169 171 166
0 8 9 1
0 0 0 0
0 0 0 0
0 0 0 0
0 0 0 0
0 0 0 0
0 0 0 0
0 0 0 0
11 0 0 0
21 11 1 0
49 58 65 89
115 131 129 142
171 213 232 252
250 304 289 256
253 304 274 264
202 263 257 248
132 185 201 209
2 30 53 77
0 0 0 0
0 0 0 0
0 0 0 0
0 0 0 0
0 0 0 0
0 0 0 0
1 0 0 0
10 0 0 0
22 15 9 1
56 70 87 119
124 132 145 135
178 223 249 251
256 309 290 254
245 316 288 263
181 257 256 258
123 173 175 172
0 2 1 0
0 0 0 0
0 0 0 0
0 0 0 0
0 0 0 0
0 0 0 0
0 0 0 0
0 0 0 0
13 0 0 0
21 10 1 0
57 70 84 114
128 138 135 137
182 228 254 251
256 316 308 274
247 327 304 260
186 262 252 259
126 176 185 187
0 3 6 2
0 0 0 0
0 0 0 0
0 0 0 0
0 0 0 0
0 0 0 0
0 0 0 0
4 0 0 0
16 1 0 0
24 16 7 2
60 72 93 119
129 144 134 149
189 245 236 256
260 324 311 275
252 332 314 265
193 263 260 228
120 184 186 175
0 9 15 4
0 0 0 0
0 0 0 0
0 0 0 0
0 0 0 0
0 0 0 0
0 0 0 0
1 0 0 0
15 2 0 0
26 13 6 0
60 69 90 117
129 147 134 156
193 249 253 247
257 318 305 274
246 322 297 257
182 254 258 255
114 168 167 154
0 0 0 0
0 0 0 0
0 0 0 0
0 0 0 0
0 0 0 0
0 0 0 0
0 0 0 0
4 0 0 0
10 0 0 0
25 20 16 12
73 88 116 130
134 160 158 151
206 255 253 254
253 306 283 257
231 304 261 259
179 255 244 241
90 158 148 135
0 0 0 0
0 0 0 0
0 0 0 0
0 0 0 0
0 0 0 0
0 0 0 0
0 0 0 0
8 0 0 0
13 1 0 0
33 24 17 11
82 112 133 115
147 186 199 209
224 287 256 253
255 314 291 256
228 302 265 255
164 239 258 248
56 130 130 129
0 0 0 0
0 0 0 0
0 0 0 0
0 0 0 0
0 0 0 0
0 0 0 0
1 0 0 0
7 0 0 0
14 2 0 0
38 38 34 36
104 129 126 129
167 213 235 257
249 325 312 286
254 321 311 271
212 277 259 253
130 209 222 242
5 56 99 136
0 0 0 0
0 0 0 0
0 0 0 0
0 0 0 0
0 0 0 0
0 0 0 0
1 0 0 0
12 0 0 0
16 7 0 0
49 58 65 87
114 133 127 138
173 218 241 231
251 309 295 265
255 304 284 260
195 255 258 249
135 185 195 198
0 25 39 52
0 0 0 0
0 0 0 0
0 0 0 0
0 0 0 0
0 0 0 0
0 0 0 0
0 0 0 0
11 0 0 0
18 8 1 0
50 56 63 77
122 134 132 130
183 231 254 255
256 319 304 272
251 309 289 249
187 256 253 246
129 185 189 190
0 19 30 35
0 0 0 0
0 0 0 0
0 0 0 0
0 0 0 0
0 0 0 0
0 0 0 0
6 0 0 0
17 4 0 0
26 20 12 6
73 92 117 128
136 165 164 159
210 256 257 242
254 329 314 280
234 322 299 254
177 255 255 231
93 169 159 138
0 0 0 0
0 0 0 0
0 0 0 0
0 0 0 0
0 0 0 0
0 0 0 0
0 0 0 0
4 0 0 0
21 4 0 0
36 30 31 32
85 118 122 128
140 183 190 195
214 276 260 259
252 330 312 275
222 302 264 256
166 245 251 227
59 128 131 130
0 0 0 0
0 0 0 0
0 0 0 0
0 0 0 0
0 0 0 0
0 0 0 0
0 0 0 0
9 0 0 0
21 10 1 0
49 55 60 80
110 133 134 141
171 214 238 228
249 321 303 265
256 314 296 258
202 264 259 261
132 193 209 230
8 44 74 114
0 0 0 0
0 0 0 0
0 0 0 0
0 0 0 0
0 0 0 0
0 0 0 0
1 0 0 0
12 0 0 0
23 15 9 4
59 72 91 120
129 142 132 137
187 241 258 251
254 313 294 258
246 320 292 260
188 260 253 258
119 189 191 191
0 9 12 3
0 0 0 0
0 0 0 0
0 0 0 0
0 0 0 0
0 0 0 0
0 0 0 0
1 0 0 0
11 1 0 0
26 19 15 12
72 96 123 118
131 160 159 148
202 253 260 257
256 310 294 260
242 290 264 249
182 249 256 249
92 157 144 130
0 0 0 0
0 0 0 0
0 0 0 0
0 0 0 0
0 0 0 0
0 0 0 0
0 0 0 0
10 0 0 0
16 5 0 0
33 31 27 24
86 114 125 134
148 186 193 203
229 294 264 263
255 315 294 261
226 297 265 252
165 243 247 240
43 116 132 129
0 0 0 0
0 0 0 0
0 0 0 0
0 0 0 0
0 0 0 0
0 0 0 0
0 0 0 0
7 0 0 0
22 10 2 0
47 52 58 74
108 135 129 129
169 213 231 250
251 327 311 275
252 340 328 282
200 276 256 252
131 185 199 199
0 27 46 60
0 0 0 0
0 0 0 0
0 0 0 0
0 0 0 0
0 0 0 0
0 0 0 0
1 0 0 0
8 0 0 0
24 10 4 0
53 58 70 89
122 142 133 132
178 231 248 254
253 309 290 264
254 306 280 262
194 258 246 259
125 197 205 217
0 25 42 61
0 0 0 0
0 0 0 0
0 0 0 0
0 0 0 0
0 0 0 0
0 0 0 0
2 0 0 0
16 2 0 0
23 13 6 0
54 70 82 112
129 142 137 141
194 246 260 246
253 309 292 261
250 305 271 256
196 256 248 249
121 171 160 142
0 0 0 0
0 0 0 0
0 0 0 0
0 0 0 0
0 0 0 0
0 0 0 0
0 0 0 0
4 0 0 0
10 0 0 0
25 21 15 13
75 100 127 123
135 167 173 176
205 261 261 251
252 312 293 257
228 300 264 252
166 247 247 246
73 134 149 131
0 0 0 0
0 0 0 0
0 0 0 0
0 0 0 0
0 0 0 0
0 0 0 0
0 0 0 0
9 0 0 0
21 10 2 0
42 39 43 46
101 125 131 124
165 210 229 247
244 299 274 266
255 329 308 269
205 283 252 262
135 200 217 245
8 56 96 134
0 0 0 0
0 0 0 0
0 0 0 0
0 0 0 0
0 0 0 0
0 0 0 0
1 0 0 0
7 0 0 0
20 11 3 0
44 47 53 62
114 130 136 136
176 220 250 241
249 327 313 279
254 341 329 292
200 280 254 261
130 195 205 220
1 37 57 87
0 0 0 0
0 0 0 0
0 0 0 0
0 0 0 0
0 0 0 0
0 0 0 0
1 0 0 0
13 0 0 0
25 16 9 2
59 73 91 120
129 141 133 137
187 241 255 243
253 313 301 264
249 311 284 255
200 262 251 254
129 175 178 165
0 8 8 0
0 0 0 0
0 0 0 0
0 0 0 0
0 0 0 0
0 0 0 0
0 0 0 0
4 0 0 0
13 2 0 0
27 17 12 5
59 74 94 121
130 147 141 138
194 248 253 247
254 329 321 294
243 309 291 253
192 254 257 253
119 168 159 143
0 0 0 0
0 0 0 0
0 0 0 0
0 0 0 0
0 0 0 0
0 0 0 0
0 0 0 0
1 0 0 0
14 1 0 0
19 10 1 0
54 66 76 102
129 142 137 133
193 250 250 245
253 317 302 266
247 324 298 262
181 256 252 246
117 169 167 153
0 0 0 0
0 0 0 0
0 0 0 0
0 0 0 0
0 0 0 0
0 0 0 0
0 0 0 0
2 0 0 0
8 0 0 0
16 7 0 0
51 59 70 94
114 130 132 135
182 229 255 231
257 317 309 270
251 310 292 254
194 260 261 256
129 202 213 230
0 24 42 58
0 0 0 0
0 0 0 0
0 0 0 0
0 0 0 0
0 0 0 0
0 0 0 0
2 0 0 0
11 0 0 0
21 12 2 0
61 78 93 124
129 142 132 144
190 244 255 253
256 323 303 268
245 323 295 253
176 249 259 246
112 165 166 154
0 0 0 0
0 0 0 0
0 0 0 0
0 0 0 0
0 0 0 0
0 0 0 0
0 0 0 0
4 0 0 0
16 3 0 0
29 27 21 20
71 98 124 117
133 170 174 176
205 258 258 244
256 316 298 262
237 319 288 254
179 254 242 248
86 152 129 133
0 0 0 0
0 0 0 0
0 0 0 0
0 0 0 0
0 0 0 0
0 0 0 0
0 0 0 0
2 0 0 0
13 4 0 0
31 24 15 10
89 119 123 121
147 194 205 221
226 298 268 252
254 319 301 262
222 295 256 255
160 237 256 233
50 127 138 133
0 0 0 0
0 0 0 0
0 0 0 0
0 0 0 0
0 0 0 0
0 0 0 0
0 0 0 0
7 0 0 0
16 2 0 0
40 36 35 36
102 129 127 129
169 211 236 254
250 324 311 281
255 313 299 254
200 267 257 258
132 197 215 230
7 41 71 105
0 0 0 0
0 0 0 0
0 0 0 0
0 0 0 0
0 0 0 0
0 0 0 0
2 0 0 0
9 1 0 0
23 12 3 0
53 66 79 107
123 128 127 132
175 225 245 252
252 334 314 287
251 334 319 274
193 261 253 252
129 183 190 194
0 8 16 7
0 0 0 0
0 0 0 0
0 0 0 0
0 0 0 0
0 0 0 0
0 0 0 0
2 0 0 0
10 0 0 0
22 14 7 2
53 63 75 96
120 147 138 138
174 228 251 254
254 315 303 268
254 303 284 259
195 254 258 262
126 175 176 172
0 7 6 0
0 0 0 0
0 0 0 0
0 0 0 0
0 0 0 0
0 0 0 0
0 0 0 0
0 0 0 0
10 0 0 0
15 4 0 0
49 52 61 79
116 126 141 132
172 211 232 252
253 297 279 257
253 302 274 258
198 256 257 259
133 190 201 211
1 31 51 73
0 0 0 0
0 0 0 0
0 0 0 0
0 0 0 0
0 0 0 0
0 0 0 0
1 0 0 0
8 0 0 0
16 5 0 0
50 54 61 78
114 126 132 134
174 219 239 239
255 306 294 262
252 314 289 260
198 261 251 259
137 191 205 216
0 27 45 64
0 0 0 0
0 0 0 0
0 0 0 0
0 0 0 0
0 0 0 0
0 0 0 0
1 0 0 0
9 0 0 0
21 14 3 1
52 59 69 89
117 134 139 134
174 223 248 242
254 310 301 262
249 313 285 256
204 266 253 251
135 178 186 185
0 16 25 27
0 0 0 0
0 0 0 0
0 0 0 0
0 0 0 0
0 0 0 0
0 0 0 0
5 0 0 0
8 0 0 0
16 7 0 0
52 60 71 92
123 134 135 139
185 236 254 243
253 339 326 304
251 317 306 266
193 262 253 240
130 193 205 211
0 27 43 61
0 0 0 0
0 0 0 0
0 0 0 0
0 0 0 0
0 0 0 0
0 0 0 0
5 0 0 0
12 0 0 0
31 23 16 15
79 102 123 125
136 173 179 183
205 262 258 253
251 327 303 268
228 308 274 259
174 252 244 242
78 141 136 128
0 0 0 0
0 0 0 0
0 0 0 0
0 0 0 0
0 0 0 0
0 0 0 0
0 0 0 0
2 0 0 0
16 5 0 0
32 29 24 26
91 123 129 131
142 181 186 196
223 286 256 257
252 329 302 266
214 293 261 260
159 234 257 239
42 118 135 127
0 0 0 0
0 0 0 0
0 0 0 0
0 0 0 0
0 0 0 0
0 0 0 0
1 0 0 0
8 0 0 0
16 6 0 0
46 52 57 74
109 133 133 135
175 215 239 230
256 304 290 254
254 313 293 258
200 265 259 261
134 187 200 210
1 30 43 64
0 0 0 0
0 0 0 0
0 0 0 0
0 0 0 0
0 0 0 0
0 0 0 0
2 0 0 0
11 0 0 0
23 14 11 1
62 75 94 129
130 147 138 139
194 250 249 244
255 317 303 267
248 321 298 257
182 257 258 255
121 180 181 177
0 2 3 0
0 0 0 0
0 0 0 0
0 0 0 0
0 0 0 0
0 0 0 0
0 0 0 0
1 0 0 0
14 2 0 0
22 10 5 0
60 74 91 118
126 137 133 132
191 246 248 245
253 314 299 261
248 323 301 254
185 256 256 230
120 179 178 166
0 4 1 0
0 0 0 0
0 0 0 0
0 0 0 0
0 0 0 0
0 0 0 0
0 0 0 0
3 0 0 0
15 0 0 0
30 23 16 13
74 100 128 125
132 186 199 209
208 269 264 255
253 305 278 263
228 303 261 246
174 248 255 253
84 144 137 131
0 0 0 0
0 0 0 0
0 0 0 0
0 0 0 0
0 0 0 0
0 0 0 0
0 0 0 0
3 0 0 0
15 5 1 0
36 33 34 38
81 115 122 127
141 173 178 173
220 276 259 250
253 299 277 255
218 283 260 255
160 231 254 237
41 111 134 131
0 0 0 0
0 0 0 0
0 0 0 0
0 0 0 0
0 0 0 0
0 0 0 0
2 0 0 0
6 0 0 0
21 11 2 0
51 58 72 94
115 130 139 135
177 223 245 253
252 328 310 273
253 339 326 283
198 274 259 243
137 192 213 220
0 27 52 70
0 0 0 0
0 0 0 0
0 0 0 0
0 0 0 0
0 0 0 0
0 0 0 0
3 0 0 0
9 0 0 0
22 12 3 0
50 57 64 80
121 131 140 135
178 228 249 250
256 309 290 254
253 303 274 258
191 255 254 246
127 199 213 223
0 29 50 74
0 0 0 0
0 0 0 0
0 0 0 0
0 0 0 0
0 0 0 0
0 0 0 0
4 0 0 0
11 0 0 0
26 15 3 0
59 69 84 108
129 140 130 131
196 248 257 241
257 315 304 260
248 310 283 253
189 252 261 241
121 172 178 164
0 0 0 0
0 0 0 0
0 0 0 0
0 0 0 0
0 0 0 0
0 0 0 0
0 0 0 0
5 0 0 0
8 1 0 0
23 15 8 1
61 74 94 122
126 137 128 130
186 242 257 252
256 312 293 258
248 308 274 261
200 258 245 253
125 170 164 150
0 0 0 0
0 0 0 0
0 0 0 0
0 0 0 0
0 0 0 0
0 0 0 0
0 0 0 0
1 0 0 0
13 1 0 0
27 19 12 5
62 75 96 124
129 145 132 150
191 248 240 244
257 322 310 278
249 312 289 257
190 252 259 248
118 178 176 165
0 1 0 0
0 0 0 0
0 0 0 0
0 0 0 0
0 0 0 0
0 0 0 0
0 0 0 0
1 0 0 0
13 2 0 0
29 26 21 20
78 102 127 131
138 172 181 189
209 263 257 252
255 299 276 259
225 295 260 252
172 248 255 240
75 132 132 130
0 0 0 0
0 0 0 0
0 0 0 0
0 0 0 0
0 0 0 0
0 0 0 0
0 0 0 0
10 0 0 0
13 3 0 0
37 34 32 31
93 125 125 127
154 190 202 215
240 287 261 256
260 313 292 255
214 280 258 244
146 208 233 250
25 83 130 130
0 0 0 0
0 0 0 0
0 0 0 0
0 0 0 0
0 0 0 0
0 0 0 0
3 0 0 0
10 0 0 0
23 11 4 0
56 67 83 113
122 129 139 132
178 221 242 252
254 312 296 260
247 323 299 256
186 258 254 231
122 180 180 171
0 10 11 2
0 0 0 0
0 0 0 0
0 0 0 0
0 0 0 0
0 0 0 0
0 0 0 0
6 0 0 0
14 0 0 0
26 17 10 2
72 91 120 130
130 156 160 151
205 255 255 261
257 306 284 256
241 289 259 246
176 247 245 246
97 168 155 131
0 0 0 0
0 0 0 0
0 0 0 0
0 0 0 0
0 0 0 0
0 0 0 0
0 0 0 0
4 0 0 0
10 1 0 0
31 30 29 29
79 106 131 130
144 182 196 208
221 282 257 260
257 307 280 258
225 293 257 259
169 245 242 233
56 125 132 133
0 0 0 0
0 0 0 0
0 0 0 0
0 0 0 0
0 0 0 0
0 0 0 0
0 0 0 0
9 0 0 0
20 9 3 0
44 50 56 70
100 127 130 133
161 202 213 241
247 316 293 265
256 318 301 266
209 282 257 256
130 210 223 244
2 53 90 126
0 0 0 0
0 0 0 0
0 0 0 0
0 0 0 0
0 0 0 0
0 0 0 0
1 0 0 0
7 0 0 0
22 12 3 0
53 59 75 95
115 129 131 131
181 225 247 248
254 332 316 282
252 312 299 264
200 263 258 255
132 175 184 182
0 14 28 25
0 0 0 0
0 0 0 0
0 0 0 0
0 0 0 0
0 0 0 0
0 0 0 0
3 0 0 0
8 0 0 0
22 11 3 0
53 59 70 88
121 134 140 131
185 229 250 252
254 309 290 263
252 309 283 255
196 260 253 240
126 181 183 184
0 22 30 35
0 0 0 0
0 0 0 0
0 0 0 0
0 0 0 0
0 0 0 0
0 0 0 0
2 0 0 0
15 1 0 0
26 13 7 0
62 74 92 116
131 150 141 130
199 249 257 250
256 311 292 262
249 310 279 252
197 255 252 253
117 175 171 155
0 0 0 0
0 0 0 0
0 0 0 0
0 0 0 0
0 0 0 0
0 0 0 0
0 0 0 0
2 0 0 0
14 2 0 0
29 22 21 20
79 101 131 133
136 166 173 171
211 262 255 257
255 304 286 253
234 304 269 253
172 248 260 242
79 135 149 135
0 0 0 0
0 0 0 0
0 0 0 0
0 0 0 0
0 0 0 0
0 0 0 0
0 0 0 0
10 0 0 0
23 9 2 0
38 40 41 41
101 131 138 133
163 210 232 246
247 304 283 260
258 331 315 270
207 284 254 258
135 202 219 248
15 59 103 136
0 0 0 0
0 0 0 0
0 0 0 0
0 0 0 0
0 0 0 0
0 0 0 0
0 0 0 0
11 0 0 0
21 10 1 0
59 72 87 117
126 137 132 129
190 245 245 241
255 314 300 262
248 305 274 260
189 254 255 254
123 166 160 146
0 0 0 0
0 0 0 0
0 0 0 0
0 0 0 0
0 0 0 0
0 0 0 0
0 0 0 0
3 0 0 0
17 1 0 0
24 14 6 1
61 79 97 129
129 150 142 135
193 248 257 242
256 311 293 256
248 321 297 255
178 256 251 245
118 172 166 153
0 0 0 0
0 0 0 0
0 0 0 0
0 0 0 0
0 0 0 0
0 0 0 0
0 0 0 0
3 0 0 0
9 0 0 0
20 7 1 0
55 60 72 93
116 133 139 132
176 221 244 255
252 328 314 277
251 315 303 260
191 261 254 260
129 193 202 218
0 27 44 61
0 0 0 0
0 0 0 0
0 0 0 0
0 0 0 0
0 0 0 0
0 0 0 0
2 0 0 0
13 1 0 0
19 13 1 0
62 75 93 124
128 140 131 131
194 248 254 244
257 315 304 272
248 323 301 257
184 259 254 259
114 167 161 144
0 0 0 0
0 0 0 0
0 0 0 0
0 0 0 0
0 0 0 0
0 0 0 0
0 0 0 0
1 0 0 0
11 1 0 0
27 20 15 11
75 97 126 124
133 171 174 174
201 258 260 254
256 311 297 259
232 309 272 259
181 258 243 254
92 155 135 135
0 0 0 0
0 0 0 0
0 0 0 0
0 0 0 0
0 0 0 0
0 0 0 0
0 0 0 0
5 0 0 0
15 5 0 0
31 26 18 19
84 117 120 119
145 190 197 211
218 281 252 259
254 312 288 256
228 299 259 246
162 241 258 233
57 127 142 127
0 0 0 0
0 0 0 0
0 0 0 0
0 0 0 0
0 0 0 0
0 0 0 0
1 0 0 0
3 0 0 0
20 8 2 0
45 46 51 63
104 127 132 131
162 204 223 241
247 300 274 265
259 312 285 261
213 276 253 245
140 195 215 228
10 50 88 125
0 0 0 0
0 0 0 0
0 0 0 0
0 0 0 0
0 0 0 0
0 0 0 0
4 0 0 0
12 1 0 0
25 20 11 7
61 74 96 125
131 152 143 136
197 249 255 252
256 319 299 262
244 300 266 250
187 255 251 231
121 168 166 150
0 0 0 0
0 0 0 0
0 0 0 0
0 0 0 0
0 0 0 0
0 0 0 0
0 0 0 0
4 0 0 0
10 0 0 0
31 24 22 21
73 96 123 118
133 172 174 174
206 257 253 252
254 315 294 258
234 315 277 245
179 258 246 255
89 155 138 132
0 0 0 0
0 0 0 0
0 0 0 0
0 0 0 0
0 0 0 0
0 0 0 0
0 0 0 0
8 0 0 0
14 1 0 0
34 26 24 16
86 113 138 123
142 183 193 198
223 290 256 251
257 312 294 260
226 297 261 249
163 239 259 234
52 129 131 130
0 0 0 0
0 0 0 0
0 0 0 0
0 0 0 0
0 0 0 0
0 0 0 0
0 0 0 0
13 0 0 0
21 12 4 0
50 60 72 100
119 146 137 134
173 224 250 253
253 310 298 268
248 326 299 263
187 258 259 234
131 187 198 201
0 20 32 42
0 0 0 0
0 0 0 0
0 0 0 0
0 0 0 0
0 0 0 0
0 0 0 0
1 0 0 0
13 3 0 0
31 23 21 20
80 105 130 128
137 175 184 195
206 262 259 256
252 312 296 264
229 304 266 253
172 252 258 241
73 133 139 134
0 0 0 0
0 0 0 0
0 0 0 0
0 0 0 0
0 0 0 0
0 0 0 0
0 0 0 0
4 0 0 0
20 6 1 0
41 39 42 52
92 125 127 128
155 195 213 234
237 310 284 256
256 315 293 250
218 286 250 254
153 221 244 237
34 92 135 126
0 0 0 0
0 0 0 0
0 0 0 0
0 0 0 0
0 0 0 0
0 0 0 0
0 0 0 0
7 0 0 0
20 8 0 0
46 53 59 74
106 130 128 134
172 219 246 243
253 333 325 299
254 343 334 305
205 285 255 256
132 204 223 242
3 42 72 114
0 0 0 0
0 0 0 0
0 0 0 0
0 0 0 0
0 0 0 0
0 0 0 0
4 0 0 0
13 1 0 0
24 19 12 4
61 74 95 126
126 140 128 142
197 247 253 240
254 310 291 263
246 299 264 257
190 253 249 244
122 183 188 187
0 2 1 0
0 0 0 0
0 0 0 0
0 0 0 0
0 0 0 0
0 0 0 0
0 0 0 0
4 0 0 0
12 1 0 0
27 22 17 12
74 100 129 127
133 188 201 216
211 272 257 258
253 311 290 262
231 303 265 253
177 249 251 255
81 142 132 130
0 0 0 0
0 0 0 0
0 0 0 0
0 0 0 0
0 0 0 0
0 0 0 0
0 0 0 0
8 0 0 0
21 8 3 0
36 34 31 33
87 117 132 124
147 190 203 218
229 300 266 255
255 316 299 259
222 297 261 249
154 228 252 249
38 103 130 128
0 0 0 0
0 0 0 0
0 0 0 0
0 0 0 0
0 0 0 0
0 0 0 0
0 0 0 0
8 0 0 0
15 4 0 0
46 52 55 74
110 133 134 135
168 206 222 247
246 317 295 266
250 343 329 299
203 284 256 248
129 191 197 201
2 38 61 84
0 0 0 0
0 0 0 0
0 0 0 0
0 0 0 0
0 0 0 0
0 0 0 0
2 0 0 0
9 0 0 0
18 7 0 0
47 53 59 75
107 127 130 131
168 206 226 250
249 319 303 268
252 317 300 267
200 271 259 248
137 189 204 217
1 29 51 71
0 0 0 0
0 0 0 0
0 0 0 0
0 0 0 0
0 0 0 0
0 0 0 0
1 0 0 0
8 0 0 0
22 10 4 0
52 64 75 103
122 148 133 137
177 236 256 248
255 312 301 269
254 307 284 248
196 256 259 254
130 185 194 196
0 17 28 34
0 0 0 0
0 0 0 0
0 0 0 0
0 0 0 0
0 0 0 0
0 0 0 0
2 0 0 0
14 5 0 0
27 17 12 3
74 91 117 131
133 159 155 153
204 250 258 251
258 312 291 260
240 313 277 248
178 256 247 245
92 160 150 131
0 0 0 0
0 0 0 0
0 0 0 0
0 0 0 0
0 0 0 0
0 0 0 0
0 0 0 0
3 0 0 0
17 5 0 0
32 26 23 18
81 110 129 135
144 185 192 207
214 278 260 258
253 309 291 258
228 300 265 246
164 243 263 252
60 127 138 128
0 0 0 0
0 0 0 0
0 0 0 0
0 0 0 0
0 0 0 0
0 0 0 0
1 0 0 0
6 0 0 0
22 8 3 0
41 41 40 45
103 132 128 129
162 205 222 244
245 318 299 266
255 311 294 251
204 268 265 242
136 191 213 232
3 40 71 110
0 0 0 0
0 0 0 0
0 0 0 0
0 0 0 0
0 0 0 0
0 0 0 0
1 0 0 0
13 0 0 0
22 15 5 1
48 58 68 86
120 134 134 136
180 228 250 247
255 317 302 269
251 333 312 270
191 264 261 263
128 187 198 210
0 21 37 51
0 0 0 0
0 0 0 0
0 0 0 0
0 0 0 0
0 0 0 0
0 0 0 0
6 0 0 0
16 4 0 0
25 16 5 1
61 79 98 130
122 152 142 132
183 246 257 248
253 313 304 272
239 325 296 253
186 259 256 249
122 177 177 166
0 2 0 0
0 0 0 0
0 0 0 0
0 0 0 0
0 0 0 0
0 0 0 0
0 0 0 0
6 0 0 0
13 0 0 0
27 22 16 13
76 99 129 124
130 166 168 162
206 261 256 250
257 317 300 262
238 317 286 259
181 258 246 253
91 163 147 130
0 0 0 0
0 0 0 0
0 0 0 0
0 0 0 0
0 0 0 0
0 0 0 0
0 0 0 0
6 0 0 0
12 1 0 0
32 24 21 12
88 119 125 125
146 191 204 216
215 283 256 257
252 331 306 263
218 299 265 249
160 243 247 243
46 124 137 126
0 0 0 0
0 0 0 0
0 0 0 0
0 0 0 0
0 0 0 0
0 0 0 0
0 0 0 0
6 0 0 0
22 9 2 0
42 42 43 50
105 133 131 127
169 214 243 232
249 326 317 287
256 323 314 277
202 269 265 249
133 200 223 241
9 44 80 114
0 0 0 0
0 0 0 0
0 0 0 0
0 0 0 0
0 0 0 0
0 0 0 0
5 0 0 0
16 2 0 0
22 11 1 0
53 60 69 90
117 137 134 132
177 228 250 252
255 306 290 261
249 325 301 263
187 260 253 261
130 190 202 211
0 18 32 43
0 0 0 0
0 0 0 0
0 0 0 0
0 0 0 0
0 0 0 0
0 0 0 0
2 0 0 0
15 2 0 0
26 20 10 7
68 84 106 116
135 161 163 159
205 259 256 248
255 314 295 258
240 291 263 249
177 248 258 240
96 159 153 136
0 0 0 0
0 0 0 0
0 0 0 0
0 0 0 0
0 0 0 0
0 0 0 0
0 0 0 0
2 0 0 0
17 2 0 0
27 22 13 9
78 101 133 131
137 173 183 194
212 267 265 254
253 306 288 262
230 303 266 250
165 247 242 246
67 127 132 132
0 0 0 0
0 0 0 0
0 0 0 0
0 0 0 0
0 0 0 0
0 0 0 0
0 0 0 0
5 0 0 0
13 1 0 0
30 31 26 26
92 125 134 127
148 187 200 212
233 304 269 267
257 312 284 249
220 286 262 254
150 219 244 237
32 88 133 124
0 0 0 0
0 0 0 0
0 0 0 0
0 0 0 0
0 0 0 0
0 0 0 0
1 0 0 0
8 0 0 0
16 3 0 0
44 48 51 65
106 131 125 133
166 210 225 250
253 301 280 253
255 305 277 255
206 264 258 254
134 185 195 201
4 31 52 67
0 0 0 0
0 0 0 0
0 0 0 0
0 0 0 0
0 0 0 0
0 0 0 0
1 0 0 0
7 0 0 0
19 9 4 0
46 51 58 74
112 130 131 131
170 225 249 248
247 326 316 283
253 319 314 273
197 262 261 255
135 190 208 213
3 40 61 95
0 0 0 0
0 0 0 0
0 0 0 0
0 0 0 0
0 0 0 0
0 0 0 0
1 0 0 0
8 0 0 0
22 11 2 0
46 51 57 68
111 127 128 132
170 212 229 245
250 326 309 272
251 336 321 274
200 275 258 252
130 203 209 219
0 35 54 76
0 0 0 0
0 0 0 0
0 0 0 0
0 0 0 0
0 0 0 0
0 0 0 0
1 0 0 0
13 3 0 0
25 19 12 4
64 83 106 133
131 146 140 134
197 250 251 253
255 316 294 264
239 320 286 261
186 254 257 261
111 182 178 171
0 1 0 0
0 0 0 0
0 0 0 0
0 0 0 0
0 0 0 0
0 0 0 0
0 0 0 0
4 0 0 0
12 0 0 0
31 27 21 21
79 103 127 127
137 171 178 179
216 272 256 249
254 306 288 258
224 292 261 252
171 246 248 245
69 130 137 128
0 0 0 0
0 0 0 0
0 0 0 0
0 0 0 0
0 0 0 0
0 0 0 0
0 0 0 0
7 0 0 0
21 6 1 0
45 46 50 63
97 128 130 130
154 189 205 220
239 314 286 255
254 313 289 248
214 283 260 243
151 217 244 243
25 77 119 137
0 0 0 0
0 0 0 0
0 0 0 0
0 0 0 0
0 0 0 0
0 0 0 0
0 0 0 0
9 0 0 0
16 5 0 0
44 51 57 74
109 133 133 136
168 212 231 248
254 303 282 258
252 308 283 248
201 263 249 255
129 181 186 194
0 23 34 40
0 0 0 0
0 0 0 0
0 0 0 0
0 0 0 0
0 0 0 0
0 0 0 0
1 0 0 0
8 0 0 0
19 11 0 0
46 53 58 76
119 135 129 136
178 222 247 241
255 312 304 269
252 310 292 253
191 259 257 254
127 201 213 228
0 32 57 86
0 0 0 0
0 0 0 0
0 0 0 0
0 0 0 0
0 0 0 0
0 0 0 0
3 0 0 0
17 0 0 0
31 24 17 12
75 99 125 120
131 170 171 168
204 260 247 253
256 309 288 252
236 312 269 253
182 250 257 241
91 149 134 132
0 0 0 0
0 0 0 0
0 0 0 0
0 0 0 0
0 0 0 0
0 0 0 0
0 0 0 0
5 0 0 0
10 1 0 0
32 27 27 29
84 116 126 130
137 179 181 192
219 280 248 248
252 310 282 254
218 288 250 258
162 239 257 240
51 127 133 127
0 0 0 0
0 0 0 0
0 0 0 0
0 0 0 0
0 0 0 0
0 0 0 0
0 0 0 0
11 0 0 0
18 10 2 0
52 58 72 89
120 133 131 130
176 221 244 237
252 312 302 266
252 314 297 259
198 259 260 239
133 191 205 217
0 32 52 77
0 0 0 0
0 0 0 0
0 0 0 0
0 0 0 0
0 0 0 0
0 0 0 0
0 0 0 0
12 0 0 0
20 10 1 0
60 71 87 119
130 142 133 137
189 244 244 246
257 320 311 280
248 310 284 260
196 259 245 261
123 170 167 153
0 1 0 0
0 0 0 0
0 0 0 0
0 0 0 0
0 0 0 0
0 0 0 0
0 0 0 0
1 0 0 0
14 1 0 0
19 8 1 0
53 54 62 77
121 132 130 126
186 236 251 231
253 314 296 261
251 328 307 265
196 259 257 259
129 195 207 217
0 17 34 41
0 0 0 0
0 0 0 0
0 0 0 0
0 0 0 0
0 0 0 0
0 0 0 0
2 0 0 0
16 2 0 0
25 16 8 1
58 70 88 120
128 147 136 131
195 249 256 249
253 309 291 258
246 304 271 260
191 256 254 246
120 168 160 145
0 0 0 0
0 0 0 0
0 0 0 0
0 0 0 0
0 0 0 0
0 0 0 0
0 0 0 0
7 0 0 0
17 5 0 0
32 29 24 22
74 97 128 121
134 172 179 183
211 263 257 252
255 302 279 261
233 303 264 251
181 256 243 256
89 152 133 134
0 0 0 0
0 0 0 0
0 0 0 0
0 0 0 0
0 0 0 0
0 0 0 0
0 0 0 0
8 0 0 0
19 6 0 0
33 31 26 25
91 123 129 128
148 191 205 216
228 300 268 261
255 312 283 250
225 297 259 241
167 245 245 237
54 130 131 127
0 0 0 0
0 0 0 0
0 0 0 0
0 0 0 0
0 0 0 0
0 0 0 0
1 0 0 0
8 0 0 0
15 3 0 0
46 48 56 71
103 130 126 135
169 217 248 245
249 328 321 293
253 322 314 277
207 275 262 252
132 198 219 239
7 51 87 123
0 0 0 0
0 0 0 0
0 0 0 0
0 0 0 0
0 0 0 0
0 0 0 0
1 0 0 0
12 1 0 0
16 6 1 0
52 57 70 90
114 129 128 140
181 229 249 252
254 314 299 263
255 312 290 248
194 257 260 253
130 180 191 196
0 18 30 38
0 0 0 0
0 0 0 0
0 0 0 0
0 0 0 0
0 0 0 0
0 0 0 0
4 0 0 0
16 2 0 0
25 25 19 20
72 99 124 121
134 168 174 173
207 260 248 255
256 315 299 266
241 291 265 252
178 247 255 247
93 150 132 134
0 0 0 0
0 0 0 0
0 0 0 0
0 0 0 0
0 0 0 0
0 0 0 0
0 0 0 0
5 0 0 0
12 0 0 0
36 30 27 29
85 119 128 132
142 185 195 202
219 280 252 257
254 310 283 252
224 298 259 244
160 237 257 232
57 127 131 128
0 0 0 0
0 0 0 0
0 0 0 0
0 0 0 0
0 0 0 0
0 0 0 0
1 0 0 0
12 0 0 0
23 11 4 0
55 63 76 99
115 130 134 129
181 228 253 254
252 333 318 292
253 320 311 269
196 262 257 242
135 193 209 225
0 26 46 65
0 0 0 0
0 0 0 0
0 0 0 0
0 0 0 0
0 0 0 0
0 0 0 0
1 0 0 0
13 1 0 0
24 17 12 5
66 80 107 131
137 154 151 142
195 254 258 247
256 309 286 259
243 301 263 252
192 250 253 233
112 156 149 132
0 0 0 0
0 0 0 0
0 0 0 0
0 0 0 0
0 0 0 0
0 0 0 0
0 0 0 0
6 0 0 0
12 1 0 0
32 21 16 7
74 93 118 130
129 162 160 157
209 260 253 248
248 332 310 279
239 325 298 253
181 255 253 252
86 145 130 131
0 0 0 0
0 0 0 0
0 0 0 0
0 0 0 0
0 0 0 0
0 0 0 0
0 0 0 0
7 0 0 0
13 1 0 0
34 32 30 34
85 114 119 133
153 194 207 227
222 288 259 258
257 314 297 265
226 301 265 252
165 245 248 248
50 128 136 128
0 0 0 0
0 0 0 0
0 0 0 0
0 0 0 0
0 0 0 0
0 0 0 0
0 0 0 0
10 0 0 0
17 3 0 0
44 45 44 52
106 133 126 130
175 224 241 246
251 312 288 255
251 312 290 256
198 259 252 260
131 194 208 228
2 34 61 95
0 0 0 0
0 0 0 0
0 0 0 0
0 0 0 0
0 0 0 0
0 0 0 0
1 0 0 0
9 0 0 0
16 7 0 0
47 53 61 76
107 129 133 130
169 209 232 252
247 320 302 266
255 316 300 256
200 266 260 241
131 184 199 209
0 24 38 52
0 0 0 0
0 0 0 0
0 0 0 0
0 0 0 0
0 0 0 0
0 0 0 0
2 0 0 0
15 1 0 0
18 8 1 0
47 52 58 75
120 130 131 129
177 221 244 233
255 312 303 267
253 303 282 254
191 256 249 253
128 197 209 223
0 29 52 78
0 0 0 0
0 0 0 0
0 0 0 0
0 0 0 0
0 0 0 0
0 0 0 0
1 0 0 0
13 1 0 0
26 22 16 12
74 98 126 121
134 168 174 174
204 257 260 254
253 314 292 259
239 318 283 253
183 253 255 254
94 155 138 133
0 0 0 0
0 0 0 0
0 0 0 0
0 0 0 0
0 0 0 0
0 0 0 0
0 0 0 0
5 0 0 0
17 6 0 0
32 27 24 21
89 121 127 131
148 194 205 229
221 286 256 268
252 333 313 277
221 303 262 253
161 249 243 236
53 125 129 127
0 0 0 0
0 0 0 0
0 0 0 0
0 0 0 0
0 0 0 0
0 0 0 0
1 0 0 0
7 0 0 0
22 10 2 0
44 47 49 58
108 133 126 130
174 223 248 248
251 327 317 284
256 317 303 264
201 265 255 256
128 182 195 194
1 31 46 62
0 0 0 0
0 0 0 0
0 0 0 0
0 0 0 0
0 0 0 0
0 0 0 0
0 0 0 0
6 0 0 0
21 9 3 0
43 43 48 55
110 133 129 128
168 213 231 249
250 324 308 272
253 313 294 256
200 260 255 251
133 183 197 208
1 31 47 67
0 0 0 0
0 0 0 0
0 0 0 0
0 0 0 0
0 0 0 0
0 0 0 0
1 0 0 0
15 0 0 0
24 18 9 1
58 72 87 121
125 133 147 134
177 223 247 256
254 312 298 265
249 327 309 261
192 260 253 253
124 165 164 150
0 3 0 0
0 0 0 0
0 0 0 0
0 0 0 0
0 0 0 0
0 0 0 0
0 0 0 0
2 0 0 0
13 1 0 0
17 7 0 0
50 56 65 85
114 131 135 139
177 226 244 245
251 313 294 262
253 305 279 257
194 258 255 258
131 206 216 237
0 38 64 98
0 0 0 0
0 0 0 0
0 0 0 0
0 0 0 0
0 0 0 0
0 0 0 0
2 0 0 0
13 3 0 0
24 20 12 7
61 77 100 132
130 143 139 130
195 253 255 248
255 314 303 269
241 295 265 256
187 255 247 255
109 182 177 167
0 0 0 0
0 0 0 0
0 0 0 0
0 0 0 0
0 0 0 0
0 0 0 0
0 0 0 0
2 0 0 0
16 4 0 0
30 21 15 7
69 90 112 126
133 166 167 165
209 255 254 256
253 306 283 256
236 310 271 253
180 258 249 248
89 155 144 131
0 0 0 0
0 0 0 0
0 0 0 0
0 0 0 0
0 0 0 0
0 0 0 0
0 0 0 0
5 0 0 0
14 1 0 0
33 27 24 19
89 122 128 131
141 186 194 208
216 283 253 261
253 310 285 253
223 293 254 250
158 230 252 247
45 114 128 133
0 0 0 0
0 0 0 0
0 0 0 0
0 0 0 0
0 0 0 0
0 0 0 0
0 0 0 0
6 0 0 0
11 2 0 0
33 36 30 35
104 131 132 129
166 211 234 248
245 316 300 265
253 309 289 251
205 271 246 259
132 192 208 225
7 41 74 110
0 0 0 0
0 0 0 0
0 0 0 0
0 0 0 0
0 0 0 0
0 0 0 0
3 0 0 0
16 2 0 0
19 9 2 0
51 58 66 80
118 131 134 130
183 232 247 253
256 318 302 267
256 314 293 253
198 261 252 249
131 183 189 191
0 20 31 35
0 0 0 0
0 0 0 0
0 0 0 0
0 0 0 0
0 0 0 0
0 0 0 0
6 0 0 0
17 2 0 0
29 23 20 17
77 100 132 131
130 183 191 200
206 268 267 255
256 302 287 254
228 297 259 251
169 248 246 245
80 146 133 136
0 0 0 0
0 0 0 0
0 0 0 0
0 0 0 0
0 0 0 0
0 0 0 0
0 0 0 0
8 0 0 0
10 3 0 0
36 33 35 38
94 123 135 127
146 184 194 200
227 288 255 254
252 306 280 261
226 294 260 258
159 238 253 239
46 120 131 126
0 0 0 0
0 0 0 0
0 0 0 0
0 0 0 0
0 0 0 0
0 0 0 0
1 0 0 0
12 0 0 0
23 11 3 0
51 61 72 90
119 143 133 135
177 229 245 253
251 311 298 260
249 327 303 256
192 262 250 260
127 201 218 234
0 31 57 84
0 0 0 0
0 0 0 0
0 0 0 0
0 0 0 0
0 0 0 0
0 0 0 0
3 0 0 0
8 0 0 0
21 7 1 0
51 54 62 79
122 134 134 132
182 232 253 258
255 313 301 266
249 328 306 260
188 261 252 230
125 185 193 187
0 19 31 34
0 0 0 0
0 0 0 0
0 0 0 0
0 0 0 0
0 0 0 0
0 0 0 0
2 0 0 0
18 1 0 0
30 24 21 17
74 97 124 117
131 182 189 195
197 258 249 253
252 311 294 258
230 306 266 258
170 250 255 233
84 146 134 134
0 0 0 0
0 0 0 0
0 0 0 0
0 0 0 0
0 0 0 0
0 0 0 0
0 0 0 0
3 0 0 0
17 4 0 0
35 27 25 19
90 120 135 125
142 176 185 187
225 285 256 254
253 312 284 252
220 289 250 254
155 228 249 248
44 112 133 134
0 0 0 0
0 0 0 0
0 0 0 0
0 0 0 0
0 0 0 0
0 0 0 0
0 0 0 0
6 0 0 0
22 11 2 0
51 59 67 91
112 132 124 135
171 213 231 252
250 302 288 256
251 329 304 264
198 267 255 256
128 201 210 218
0 36 60 84
0 0 0 0
0 0 0 0
0 0 0 0
0 0 0 0
0 0 0 0
0 0 0 0
0 0 0 0
5 0 0 0
19 11 1 0
46 53 60 77
114 129 135 137
182 229 253 253
256 315 301 266
254 312 292 252
202 262 253 238
132 184 197 197
0 21 35 42
0 0 0 0
0 0 0 0
0 0 0 0
0 0 0 0
0 0 0 0
0 0 0 0
4 0 0 0
13 1 0 0
30 22 18 17
76 97 129 125
135 171 178 181
210 263 253 254
257 318 302 263
237 314 281 248
177 254 248 244
88 152 137 134
0 0 0 0
0 0 0 0
0 0 0 0
0 0 0 0
0 0 0 0
0 0 0 0
0 0 0 0
4 0 0 0
14 0 0 0
27 21 14 9
76 101 131 127
140 173 185 191
213 268 266 255
255 308 289 260
230 300 268 247
164 244 254 248
61 130 128 133
0 0 0 0
0 0 0 0
0 0 0 0
0 0 0 0
0 0 0 0
0 0 0 0
0 0 0 0
6 0 0 0
19 7 0 0
36 36 32 35
93 125 125 130
156 198 217 243
233 306 277 256
253 313 288 256
221 292 253 251
152 226 246 249
29 96 130 124
0 0 0 0
0 0 0 0
0 0 0 0
0 0 0 0
0 0 0 0
0 0 0 0
1 0 0 0
11 0 0 0
22 13 6 2
49 60 68 92
118 126 129 133
179 215 237 253
255 311 299 263
