## File generated by myo_cap software
## Available from github.com/ddantas/myo_cap
## Timestamp: 2018-05-23_20-57-32
##
## EMG capture settings##
# sampleRate: 2000.0
# channelsPerBoard: 4.0
# nBoards: 1.0
# bitsPerSample: 12.0
##
## Data
## t; ch0; ch1; ch2; ch3
 165 161
204 253 253 256
254 306 283 255
234 309 265 248
179 258 249 248
92 159 149 133
0 0 0 0
0 0 0 0
0 0 0 0
0 0 0 0
0 0 0 0
0 0 0 0
0 0 0 0
6 0 0 0
12 1 0 0
30 24 19 9
76 101 130 125
137 168 179 181
210 263 259 254
254 56
169 246 255 237
67 123 141 126
0 0 0 0
0 0 0 0
0 0 0 0
0 0 0 0
0 0 0 0
0 0 0 0
0 0 0 0
16 0 0 0
24 12 4 0
48 59 65 87
104 127 138 133
166 206 231 248
247 303 280 250
254 310 283 260
203 263 254 261
133 187 196 209
7 43 66 96
0 0 0 0
0 0 0 0
0 0 0 0
0 0 0 0
0 0 0 0
0 0 0 0
3 0 0 0
8 0 0 0
16 5 0 0
42 49 52 67
100 132 131 135
161 204 221 242
245 302 276 255
256 303 272 255
201 259 248 251
135 197 209 226
12 50 81 118
0 0 0 0
0 0 0 0
0 0 0 0
0 0 0 0
0 0 0 0
0 0 0 0
2 0 0 0
16 4 0 0
26 18 10 2
61 80 99 128
126 161 159 150
188 251 253 257
251 331 312 279
239 331 308 260
186 260 255 236
105 179 174 156
0 3 1 0
0 0 0 0
0 0 0 0
0 0 0 0
0 0 0 0
0 0 0 0
0 0 0 0
5 0 0 0
12 1 0 0
28 22 14 6
69 86 111 114
132 152 151 134
199 256 247 251
252 312 291 256
236 310 274 249
172 255 255 244
87 150 131 130
0 0 0 0
0 0 0 0
0 0 0 0
0 0 0 0
0 0 0 0
0 0 0 0
0 0 0 0
9 0 0 0
18 9 1 0
32 35 34 37
80 119 125 124
136 176 182 185
216 274 262 262
256 302 285 257
225 289 260 253
160 229 246 252
54 122 136 127
0 0 0 0
0 0 0 0
0 0 0 0
0 0 0 0
0 0 0 0
0 0 0 0
0 0 0 0
8 0 0 0
21 10 3 0
50 55 63 81
105 128 127 134
164 209 223 244
247 320 302 266
251 332 317 264
204 273 255 254
130 187 193 193
12 46 73 102
0 0 0 0
0 0 0 0
0 0 0 0
0 0 0 0
0 0 0 0
0 0 0 0
2 0 0 0
15 4 0 0
27 18 9 1
61 72 92 116
127 143 133 148
189 240 256 243
256 316 304 269
248 304 274 253
190 254 259 241
118 166 165 140
0 0 0 0
0 0 0 0
0 0 0 0
0 0 0 0
0 0 0 0
0 0 0 0
0 0 0 0
2 0 0 0
14 2 0 0
31 24 21 20
70 90 113 126
132 162 157 151
201 253 251 259
252 314 294 261
235 314 275 255
178 258 245 248
89 156 138 130
0 0 0 0
0 0 0 0
0 0 0 0
0 0 0 0
0 0 0 0
0 0 0 0
0 0 0 0
7 0 0 0
13 1 0 0
32 24 19 11
75 102 128 126
136 167 173 170
213 270 265 250
254 300 275 260
219 287 250 255
155 227 250 247
56 128 128 131
0 0 0 0
0 0 0 0
0 0 0 0
0 0 0 0
0 0 0 0
0 0 0 0
0 0 0 0
8 0 0 0
19 4 0 0
43 45 50 61
94 123 130 127
151 188 203 220
240 309 282 256
255 309 277 262
209 273 254 254
143 204 229 246
22 77 119 135
0 0 0 0
0 0 0 0
0 0 0 0
0 0 0 0
0 0 0 0
0 0 0 0
2 0 0 0
13 1 0 0
18 9 1 0
44 50 53 66
114 132 134 138
171 213 233 253
256 304 288 259
248 321 297 255
196 260 255 253
127 174 178 172
0 13 19 14
0 0 0 0
0 0 0 0
0 0 0 0
0 0 0 0
0 0 0 0
0 0 0 0
5 0 0 0
18 4 0 0
30 26 23 21
67 91 113 127
130 153 143 131
202 255 249 255
252 314 291 257
233 313 278 245
171 251 261 246
91 163 156 137
0 0 0 0
0 0 0 0
0 0 0 0
0 0 0 0
0 0 0 0
0 0 0 0
0 0 0 0
7 0 0 0
14 1 0 0
34 31 29 30
77 105 122 129
135 168 169 162
212 265 257 249
253 326 305 271
219 300 269 250
160 237 254 243
59 130 136 136
0 0 0 0
0 0 0 0
0 0 0 0
0 0 0 0
0 0 0 0
0 0 0 0
2 0 0 0
10 0 0 0
22 11 5 0
51 58 70 92
117 129 129 145
177 218 243 240
249 325 312 277
250 333 319 272
191 266 260 257
129 206 225 242
1 41 73 112
0 0 0 0
0 0 0 0
0 0 0 0
0 0 0 0
0 0 0 0
0 0 0 0
1 0 0 0
15 4 0 0
29 23 21 20
72 97 121 117
136 163 161 154
202 257 256 257
252 309 287 254
235 314 274 248
180 258 244 254
92 160 141 134
0 0 0 0
0 0 0 0
0 0 0 0
0 0 0 0
0 0 0 0
0 0 0 0
0 0 0 0
8 0 0 0
19 8 1 0
38 37 36 39
83 118 125 130
139 185 194 208
218 275 253 258
251 326 299 259
220 296 258 259
159 237 258 238
53 124 132 132
0 0 0 0
0 0 0 0
0 0 0 0
0 0 0 0
0 0 0 0
0 0 0 0
1 0 0 0
9 0 0 0
20 8 1 0
44 47 53 66
95 122 131 129
152 186 201 219
231 296 267 250
250 339 319 277
215 293 259 241
148 220 244 241
30 92 128 131
0 0 0 0
0 0 0 0
0 0 0 0
0 0 0 0
0 0 0 0
0 0 0 0
1 0 0 0
16 0 0 0
25 18 9 3
58 71 90 117
124 127 140 129
177 225 246 250
253 309 294 260
247 300 269 262
197 259 249 251
133 182 186 184
0 8 9 1
0 0 0 0
0 0 0 0
0 0 0 0
0 0 0 0
0 0 0 0
0 0 0 0
3 0 0 0
11 0 0 0
19 8 1 0
46 52 54 67
114 127 134 138
172 210 229 255
254 304 283 253
253 328 308 266
195 263 261 242
129 197 211 226
0 38 64 97
0 0 0 0
0 0 0 0
0 0 0 0
0 0 0 0
0 0 0 0
0 0 0 0
2 0 0 0
13 1 0 0
26 22 17 14
72 95 118 135
132 152 146 132
193 253 246 247
251 311 297 267
234 313 279 247
180 257 249 249
102 172 162 140
0 0 0 0
0 0 0 0
0 0 0 0
0 0 0 0
0 0 0 0
0 0 0 0
0 0 0 0
6 0 0 0
22 9 3 0
36 32 34 25
84 114 132 125
143 188 201 217
220 286 254 268
254 309 283 254
219 288 253 256
154 227 245 247
48 121 134 130
0 0 0 0
0 0 0 0
0 0 0 0
0 0 0 0
0 0 0 0
0 0 0 0
3 0 0 0
7 0 0 0
22 10 4 0
44 49 55 64
104 129 127 128
162 209 229 250
247 321 304 269
250 317 295 257
204 263 256 256
137 190 204 217
5 37 58 84
0 0 0 0
0 0 0 0
0 0 0 0
0 0 0 0
0 0 0 0
0 0 0 0
2 0 0 0
15 1 0 0
19 9 1 0
50 52 60 70
115 133 139 128
174 221 243 237
255 306 291 259
245 321 299 259
194 257 256 261
127 199 213 229
0 35 58 89
0 0 0 0
0 0 0 0
0 0 0 0
0 0 0 0
0 0 0 0
0 0 0 0
6 0 0 0
9 0 0 0
24 13 4 0
54 67 78 108
118 141 131 131
177 229 249 232
251 313 300 262
247 304 274 262
195 256 254 255
128 178 183 185
0 8 11 3
0 0 0 0
0 0 0 0
0 0 0 0
0 0 0 0
0 0 0 0
0 0 0 0
1 0 0 0
16 1 0 0
20 12 1 0
58 70 86 115
124 129 141 131
183 231 252 238
252 313 298 262
243 298 265 250
187 254 253 233
122 185 192 193
0 12 18 20
0 0 0 0
0 0 0 0
0 0 0 0
0 0 0 0
0 0 0 0
0 0 0 0
10 0 0 0
22 10 1 0
38 40 40 43
97 127 131 133
149 189 200 210
232 297 263 255
252 332 303 263
216 294 259 243
148 223 244 245
27 90 122 133
0 0 0 0
0 0 0 0
0 0 0 0
0 0 0 0
0 0 0 0
0 0 0 0
3 0 0 0
9 0 0 0
19 5 0 0
49 49 57 72
104 130 126 129
169 215 241 232
245 318 303 270
251 339 327 289
194 271 253 247
135 192 212 231
2 36 61 96
0 0 0 0
0 0 0 0
0 0 0 0
0 0 0 0
0 0 0 0
0 0 0 0
0 0 0 0
9 0 0 0
21 12 2 0
46 50 57 69
110 136 137 135
171 217 249 248
250 309 293 265
256 311 291 258
202 260 255 252
137 181 188 192
1 30 43 58
0 0 0 0
0 0 0 0
0 0 0 0
0 0 0 0
0 0 0 0
0 0 0 0
5 0 0 0
14 0 0 0
21 12 1 0
63 72 87 118
124 130 143 134
177 220 243 257
252 311 289 259
243 296 264 252
188 253 249 256
126 168 171 161
0 2 1 0
0 0 0 0
0 0 0 0
0 0 0 0
0 0 0 0
0 0 0 0
0 0 0 0
2 0 0 0
17 2 0 0
21 11 2 0
58 72 86 118
123 129 143 131
182 230 250 233
253 312 297 266
246 305 278 254
194 257 253 253
125 168 162 148
0 3 3 0
0 0 0 0
0 0 0 0
0 0 0 0
0 0 0 0
0 0 0 0
0 0 0 0
3 0 0 0
11 0 0 0
22 19 9 3
56 73 88 119
120 149 132 140
180 241 261 241
252 336 325 290
244 310 292 250
191 255 251 252
127 172 174 165
0 4 7 0
0 0 0 0
0 0 0 0
0 0 0 0
0 0 0 0
0 0 0 0
0 0 0 0
5 0 0 0
16 2 0 0
29 21 16 9
61 74 96 124
128 147 136 136
184 240 253 243
250 315 302 266
245 302 274 252
192 254 255 242
120 166 167 143
0 1 1 0
0 0 0 0
0 0 0 0
0 0 0 0
0 0 0 0
0 0 0 0
0 0 0 0
4 0 0 0
11 0 0 0
25 13 6 0
54 68 80 107
125 129 141 130
187 235 259 248
253 333 321 293
242 304 284 258
191 254 253 253
119 184 183 180
0 10 7 2
0 0 0 0
0 0 0 0
0 0 0 0
0 0 0 0
0 0 0 0
0 0 0 0
2 0 0 0
18 2 0 0
32 29 26 28
76 97 124 122
133 164 165 158
209 260 251 256
254 309 288 255
231 308 266 252
169 246 255 252
84 142 133 131
0 0 0 0
0 0 0 0
0 0 0 0
0 0 0 0
0 0 0 0
0 0 0 0
0 0 0 0
7 0 0 0
22 7 2 0
39 38 42 46
87 116 133 124
148 185 194 204
218 280 255 258
254 305 284 248
219 288 253 256
155 222 242 243
49 119 132 132
0 0 0 0
0 0 0 0
0 0 0 0
0 0 0 0
0 0 0 0
0 0 0 0
0 0 0 0
8 0 0 0
21 10 2 0
52 58 66 85
111 137 129 142
173 216 238 229
246 322 300 264
249 332 314 269
195 264 257 255
126 198 212 227
1 40 70 107
0 0 0 0
0 0 0 0
0 0 0 0
0 0 0 0
0 0 0 0
0 0 0 0
5 0 0 0
11 1 0 0
22 12 5 1
59 74 91 120
125 133 146 128
187 240 256 252
251 314 292 262
239 320 290 259
191 257 249 252
122 192 194 192
0 10 12 7
0 0 0 0
0 0 0 0
0 0 0 0
0 0 0 0
0 0 0 0
0 0 0 0
10 0 0 0
11 2 0 0
28 22 13 9
73 97 118 129
130 163 161 150
207 258 250 256
252 306 283 249
226 290 260 258
163 239 258 239
70 129 129 130
0 0 0 0
0 0 0 0
0 0 0 0
0 0 0 0
0 0 0 0
0 0 0 0
0 0 0 0
8 0 0 0
21 9 1 0
39 44 44 54
90 123 130 126
148 192 206 226
229 301 268 263
252 333 308 263
210 289 256 254
151 225 246 247
42 106 134 128
0 0 0 0
0 0 0 0
0 0 0 0
0 0 0 0
0 0 0 0
0 0 0 0
0 0 0 0
10 1 0 0
24 15 6 1
57 68 87 117
120 146 131 143
177 229 248 248
252 313 300 262
247 304 270 259
191 254 259 247
130 177 187 189
0 10 19 18
0 0 0 0
0 0 0 0
0 0 0 0
0 0 0 0
0 0 0 0
0 0 0 0
7 0 0 0
17 7 0 0
32 27 22 22
81 111 135 124
141 178 185 194
210 265 258 257
249 321 297 260
215 292 261 257
162 238 257 249
64 132 132 134
0 0 0 0
0 0 0 0
0 0 0 0
0 0 0 0
0 0 0 0
0 0 0 0
0 0 0 0
11 0 0 0
23 12 4 0
48 56 66 84
106 127 131 129
162 202 218 245
247 299 273 274
256 300 269 257
198 257 247 245
134 190 208 218
7 41 69 104
0 0 0 0
0 0 0 0
0 0 0 0
0 0 0 0
0 0 0 0
0 0 0 0
3 0 0 0
9 0 0 0
21 7 0 0
52 58 67 87
112 126 132 132
171 213 229 248
254 304 284 260
253 328 306 266
199 268 259 241
125 195 203 214
0 31 48 70
0 0 0 0
0 0 0 0
0 0 0 0
0 0 0 0
0 0 0 0
0 0 0 0
7 0 0 0
12 0 0 0
24 12 3 0
55 64 74 99
120 143 137 132
174 221 247 255
249 328 311 279
246 327 310 269
181 262 253 261
116 193 198 203
0 23 39 50
0 0 0 0
0 0 0 0
0 0 0 0
0 0 0 0
0 0 0 0
0 0 0 0
8 0 0 0
18 9 2 0
29 24 20 14
77 100 129 124
134 187 196 205
212 276 256 256
253 305 288 254
225 295 257 242
165 245 244 239
62 127 143 126
0 0 0 0
0 0 0 0
0 0 0 0
0 0 0 0
0 0 0 0
0 0 0 0
0 0 0 0
9 0 0 0
18 3 0 0
40 39 42 50
98 126 127 130
152 189 202 208
230 299 261 257
254 313 281 255
213 282 255 253
145 207 224 250
29 81 126 128
0 0 0 0
0 0 0 0
0 0 0 0
0 0 0 0
0 0 0 0
0 0 0 0
2 0 0 0
8 0 0 0
20 8 0 0
44 43 44 51
106 135 126 133
166 216 238 231
249 306 285 257
255 306 276 254
204 263 255 262
133 181 187 194
8 40 58 83
0 0 0 0
0 0 0 0
0 0 0 0
0 0 0 0
0 0 0 0
0 0 0 0
4 0 0 0
10 1 0 0
22 14 4 1
54 67 79 109
121 149 134 135
177 233 255 238
251 333 321 292
246 312 291 254
200 261 250 233
129 181 182 174
0 18 22 21
0 0 0 0
0 0 0 0
0 0 0 0
0 0 0 0
0 0 0 0
0 0 0 0
2 0 0 0
14 4 0 0
24 21 11 7
70 92 117 131
138 161 160 157
206 257 257 249
256 302 276 268
230 303 259 253
174 249 257 245
90 155 147 130
0 0 0 0
0 0 0 0
0 0 0 0
0 0 0 0
0 0 0 0
0 0 0 0
0 0 0 0
5 0 0 0
11 1 0 0
27 24 14 9
76 101 126 123
132 190 201 211
211 276 249 255
254 306 279 258
225 297 255 253
167 246 247 238
68 134 135 131
0 0 0 0
0 0 0 0
0 0 0 0
0 0 0 0
0 0 0 0
0 0 0 0
1 0 0 0
11 0 0 0
22 12 2 0
48 54 64 79
108 130 136 137
165 210 231 253
246 322 303 269
251 340 325 280
198 270 262 255
131 193 208 219
9 50 80 121
0 0 0 0
0 0 0 0
0 0 0 0
0 0 0 0
0 0 0 0
0 0 0 0
4 0 0 0
10 1 0 0
24 15 7 1
58 71 87 116
118 145 133 129
178 237 256 241
251 333 324 292
248 318 303 261
198 261 251 239
126 173 176 163
0 6 1 0
0 0 0 0
0 0 0 0
0 0 0 0
0 0 0 0
0 0 0 0
0 0 0 0
1 0 0 0
15 4 0 0
18 9 1 0
49 53 58 74
116 136 129 141
172 214 234 248
254 305 289 258
249 328 302 261
196 261 259 261
131 185 195 203
1 30 43 61
0 0 0 0
0 0 0 0
0 0 0 0
0 0 0 0
0 0 0 0
0 0 0 0
6 0 0 0
14 1 0 0
30 24 19 16
72 98 126 121
130 159 154 142
204 254 253 253
252 326 303 268
228 312 273 256
174 259 245 249
91 163 151 131
0 0 0 0
0 0 0 0
0 0 0 0
0 0 0 0
0 0 0 0
0 0 0 0
0 0 0 0
4 0 0 0
20 4 0 0
29 26 20 14
78 103 126 125
133 167 171 172
207 262 255 250
254 302 280 257
220 290 257 255
165 237 257 246
62 130 147 131
0 0 0 0
0 0 0 0
0 0 0 0
0 0 0 0
0 0 0 0
0 0 0 0
1 0 0 0
4 0 0 0
20 9 2 0
39 38 40 47
94 126 124 124
151 196 210 231
230 303 267 265
252 309 281 248
212 278 255 249
139 202 223 250
23 77 124 130
0 0 0 0
0 0 0 0
0 0 0 0
0 0 0 0
0 0 0 0
0 0 0 0
3 0 0 0
17 4 0 0
22 11 3 0
54 59 74 91
120 129 134 142
177 213 238 256
253 305 290 260
245 315 288 261
184 260 259 260
130 184 194 201
0 20 35 44
0 0 0 0
0 0 0 0
0 0 0 0
0 0 0 0
0 0 0 0
0 0 0 0
8 0 0 0
20 7 1 0
29 24 17 9
73 96 121 120
139 163 164 163
206 258 252 260
256 305 280 256
231 305 267 249
176 253 244 240
98 167 163 142
0 0 0 0
0 0 0 0
0 0 0 0
0 0 0 0
0 0 0 0
0 0 0 0
0 0 0 0
2 0 0 0
16 4 0 0
28 23 13 9
70 91 117 125
132 156 161 150
209 258 256 256
256 301 279 257
228 296 257 256
172 247 248 241
81 146 132 132
0 0 0 0
0 0 0 0
0 0 0 0
0 0 0 0
0 0 0 0
0 0 0 0
0 0 0 0
5 0 0 0
19 7 0 0
34 33 29 27
90 120 128 132
141 182 192 200
223 285 259 260
251 306 281 249
213 280 258 246
160 231 252 228
49 123 140 126
0 0 0 0
0 0 0 0
0 0 0 0
0 0 0 0
0 0 0 0
0 0 0 0
1 0 0 0
14 1 0 0
16 8 0 0
40 43 43 51
95 131 134 131
152 189 202 214
242 285 257 267
251 301 271 264
198 258 258 258
133 199 217 239
17 61 98 136
0 0 0 0
0 0 0 0
0 0 0 0
0 0 0 0
0 0 0 0
0 0 0 0
1 0 0 0
16 3 0 0
27 21 17 14
72 94 119 138
140 160 162 155
200 251 258 260
252 305 283 255
234 314 274 243
180 254 249 241
96 165 160 131
0 0 0 0
0 0 0 0
0 0 0 0
0 0 0 0
0 0 0 0
0 0 0 0
0 0 0 0
3 0 0 0
15 2 0 0
34 31 27 26
81 110 136 122
130 189 194 201
209 277 256 255
253 331 319 285
220 300 262 259
166 249 247 241
67 134 132 131
0 0 0 0
0 0 0 0
0 0 0 0
0 0 0 0
0 0 0 0
0 0 0 0
0 0 0 0
8 0 0 0
15 3 0 0
42 39 42 48
96 126 124 124
154 196 212 232
237 308 283 255
252 333 311 263
217 297 261 241
150 230 255 223
32 104 137 128
0 0 0 0
0 0 0 0
0 0 0 0
0 0 0 0
0 0 0 0
0 0 0 0
6 0 0 0
15 2 0 0
29 22 15 9
62 79 99 124
126 159 157 148
185 248 255 248
251 330 309 270
239 324 300 256
184 259 256 250
120 176 178 166
0 4 2 0
0 0 0 0
0 0 0 0
0 0 0 0
0 0 0 0
0 0 0 0
0 0 0 0
5 0 0 0
18 4 0 0
31 26 23 21
70 91 116 128
133 155 150 132
198 253 246 247
255 313 286 261
230 310 271 256
172 252 259 240
91 156 150 136
0 0 0 0
0 0 0 0
0 0 0 0
0 0 0 0
0 0 0 0
0 0 0 0
0 0 0 0
9 0 0 0
18 8 0 0
32 28 26 22
83 114 131 122
133 196 199 212
210 280 251 261
250 331 309 269
219 299 269 250
160 245 248 245
59 130 147 130
0 0 0 0
0 0 0 0
0 0 0 0
0 0 0 0
0 0 0 0
0 0 0 0
1 0 0 0
10 0 0 0
18 11 4 0
44 49 54 63
111 128 135 130
170 206 233 253
250 320 303 270
251 340 324 288
192 268 260 248
129 206 227 246
1 41 70 103
0 0 0 0
0 0 0 0
0 0 0 0
0 0 0 0
0 0 0 0
0 0 0 0
7 0 0 0
12 1 0 0
24 13 5 1
61 76 92 121
126 134 153 133
190 244 240 248
253 317 298 267
239 325 294 252
188 261 259 251
119 190 194 192
0 11 18 15
0 0 0 0
0 0 0 0
0 0 0 0
0 0 0 0
0 0 0 0
0 0 0 0
9 0 0 0
22 9 3 0
34 33 32 28
87 122 131 131
140 185 195 207
225 290 259 255
252 328 308 270
214 291 253 254
153 228 249 255
43 115 128 133
0 0 0 0
0 0 0 0
0 0 0 0
0 0 0 0
0 0 0 0
0 0 0 0
3 0 0 0
16 3 0 0
26 15 13 3
55 66 83 109
126 134 154 140
181 228 250 231
253 308 300 266
246 301 269 259
191 253 256 246
128 174 183 182
0 6 12 9
0 0 0 0
0 0 0 0
0 0 0 0
0 0 0 0
0 0 0 0
0 0 0 0
6 0 0 0
16 4 0 0
32 25 21 20
70 89 113 126
132 159 157 147
198 257 250 262
254 312 292 261
231 308 267 250
177 256 245 240
100 168 159 137
0 0 0 0
0 0 0 0
0 0 0 0
0 0 0 0
0 0 0 0
0 0 0 0
0 0 0 0
8 0 0 0
18 7 0 0
33 31 25 24
88 120 128 131
141 184 193 201
215 279 249 252
255 303 273 253
217 285 261 252
157 229 255 235
50 121 136 132
0 0 0 0
0 0 0 0
0 0 0 0
0 0 0 0
0 0 0 0
0 0 0 0
1 0 0 0
7 0 0 0
20 11 4 0
50 55 65 86
105 127 130 131
170 208 233 254
251 323 310 279
254 314 298 256
199 262 261 239
134 183 193 202
5 35 57 80
0 0 0 0
0 0 0 0
0 0 0 0
0 0 0 0
0 0 0 0
0 0 0 0
3 0 0 0
9 0 0 0
17 7 0 0
48 54 61 81
110 133 134 134
172 212 233 251
250 326 310 279
252 314 297 256
194 263 257 261
132 174 183 181
1 23 33 40
0 0 0 0
0 0 0 0
0 0 0 0
0 0 0 0
0 0 0 0
0 0 0 0
2 0 0 0
12 1 0 0
23 16 10 2
62 74 94 127
127 141 138 139
178 230 254 260
252 312 298 264
242 295 262 256
189 253 263 256
126 176 178 168
0 7 5 0
0 0 0 0
0 0 0 0
0 0 0 0
0 0 0 0
0 0 0 0
0 0 0 0
5 0 0 0
17 3 0 0
30 25 21 16
70 90 115 128
132 154 148 139
197 253 253 251
252 312 291 257
229 308 267 250
171 251 259 243
98 165 161 147
0 0 0 0
0 0 0 0
0 0 0 0
0 0 0 0
0 0 0 0
0 0 0 0
0 0 0 0
7 0 0 0
19 8 1 0
35 32 34 35
81 113 138 125
137 180 191 201
212 272 259 261
250 324 304 262
220 295 264 244
159 236 258 234
64 134 131 128
0 0 0 0
0 0 0 0
0 0 0 0
0 0 0 0
0 0 0 0
0 0 0 0
0 0 0 0
8 0 0 0
16 2 0 0
38 35 33 32
91 129 127 128
143 185 192 202
228 293 261 251
252 308 286 253
209 271 262 244
148 209 240 231
29 81 125 125
0 0 0 0
0 0 0 0
0 0 0 0
0 0 0 0
0 0 0 0
0 0 0 0
1 0 0 0
10 0 0 0
22 15 4 1
50 55 66 84
119 129 136 128
176 220 245 237
251 310 299 263
245 317 294 255
191 259 250 255
132 178 181 183
0 20 29 34
0 0 0 0
0 0 0 0
0 0 0 0
0 0 0 0
0 0 0 0
0 0 0 0
4 0 0 0
15 3 0 0
30 29 21 21
69 93 118 129
129 155 150 140
199 258 250 259
252 314 292 260
230 302 264 261
180 252 246 241
92 156 150 131
0 0 0 0
0 0 0 0
0 0 0 0
0 0 0 0
0 0 0 0
0 0 0 0
0 0 0 0
11 0 0 0
18 12 1 0
34 37 33 40
96 130 131 128
152 195 209 226
229 301 267 258
253 312 283 249
211 276 250 257
142 205 229 249
25 80 125 124
0 0 0 0
0 0 0 0
0 0 0 0
0 0 0 0
0 0 0 0
0 0 0 0
1 0 0 0
12 1 0 0
22 18 11 3
51 67 78 108
123 126 138 127
176 220 245 245
252 306 295 267
247 301 271 259
195 254 258 250
129 172 174 161
0 7 4 0
0 0 0 0
0 0 0 0
0 0 0 0
0 0 0 0
0 0 0 0
0 0 0 0
6 0 0 0
17 2 0 0
23 21 13 12
67 82 105 130
130 167 162 150
191 255 249 258
251 313 297 266
233 310 274 263
176 253 244 244
99 167 159 139
0 1 0 0
0 0 0 0
0 0 0 0
0 0 0 0
0 0 0 0
0 0 0 0
0 0 0 0
4 0 0 0
14 3 0 0
26 22 12 7
70 92 122 127
132 158 164 159
197 256 252 259
252 312 296 259
236 315 281 248
171 253 254 250
92 159 143 127
0 0 0 0
0 0 0 0
0 0 0 0
0 0 0 0
0 0 0 0
0 0 0 0
0 0 0 0
9 0 0 0
13 1 0 0
32 26 21 17
78 109 130 131
138 175 185 193
212 271 257 253
254 301 282 256
218 284 255 260
160 227 251 251
54 125 130 124
0 0 0 0
0 0 0 0
0 0 0 0
0 0 0 0
0 0 0 0
0 0 0 0
0 0 0 0
10 0 0 0
21 14 6 0
50 58 69 92
111 126 131 133
169 204 221 244
250 317 299 268
253 338 320 285
199 274 258 247
132 185 198 199
1 30 46 62
0 0 0 0
0 0 0 0
0 0 0 0
0 0 0 0
0 0 0 0
0 0 0 0
1 0 0 0
12 1 0 0
24 19 11 4
57 69 90 116
128 141 133 137
188 242 255 246
253 337 325 288
247 315 299 263
194 255 252 258
119 185 184 178
0 12 15 11
0 0 0 0
0 0 0 0
0 0 0 0
0 0 0 0
0 0 0 0
0 0 0 0
10 0 0 0
15 3 0 0
37 32 31 31
91 124 131 126
144 180 187 193
227 288 258 263
252 305 279 257
215 282 254 253
152 221 248 245
43 106 134 139
0 0 0 0
0 0 0 0
0 0 0 0
0 0 0 0
0 0 0 0
0 0 0 0
4 0 0 0
8 0 0 0
18 7 0 0
48 53 62 79
109 134 133 136
163 202 215 237
248 300 274 271
252 308 277 255
201 262 256 249
135 175 192 189
3 26 43 50
0 0 0 0
0 0 0 0
0 0 0 0
0 0 0 0
0 0 0 0
0 0 0 0
2 0 0 0
15 4 0 0
16 11 1 0
49 56 65 84
116 134 130 130
178 222 248 240
255 312 304 271
251 323 305 261
189 261 260 235
133 190 204 206
0 26 44 64
0 0 0 0
0 0 0 0
0 0 0 0
0 0 0 0
0 0 0 0
0 0 0 0
5 0 0 0
12 1 0 0
26 20 11 3
71 90 118 125
138 157 164 158
197 256 249 254
253 313 292 256
240 290 258 247
179 249 256 251
92 155 135 135
0 0 0 0
0 0 0 0
0 0 0 0
0 0 0 0
0 0 0 0
0 0 0 0
0 0 0 0
7 0 0 0
14 1 0 0
33 31 28 29
81 110 136 125
133 171 174 171
211 267 257 250
252 326 306 266
226 303 266 254
164 249 248 237
67 133 137 131
0 0 0 0
0 0 0 0
0 0 0 0
0 0 0 0
0 0 0 0
0 0 0 0
0 0 0 0
14 1 0 0
19 7 0 0
46 50 56 66
100 126 128 133
163 204 218 245
244 295 265 268
253 301 269 262
207 266 253 261
131 203 220 247
3 51 85 124
0 0 0 0
0 0 0 0
0 0 0 0
0 0 0 0
0 0 0 0
0 0 0 0
4 0 0 0
12 1 0 0
25 19 12 6
54 69 84 115
123 130 144 127
180 225 250 255
252 310 290 260
243 295 262 256
188 258 242 254
125 180 179 172
0 8 8 2
0 0 0 0
0 0 0 0
0 0 0 0
0 0 0 0
0 0 0 0
0 0 0 0
1 0 0 0
16 1 0 0
25 21 13 8
61 75 95 127
130 146 138 136
196 250 244 249
255 320 299 265
246 303 275 249
193 257 256 242
120 165 167 141
0 1 0 0
0 0 0 0
0 0 0 0
0 0 0 0
0 0 0 0
0 0 0 0
0 0 0 0
2 0 0 0
16 3 0 0
26 20 11 5
71 89 118 122
133 149 150 134
192 251 254 248
252 311 299 260
233 306 271 252
181 252 244 245
103 173 163 140
0 0 0 0
0 0 0 0
0 0 0 0
0 0 0 0
0 0 0 0
0 0 0 0
0 0 0 0
7 0 0 0
15 1 0 0
36 32 31 34
81 110 130 118
137 173 178 172
215 273 256 249
251 302 281 258
217 286 249 260
161 234 247 254
59 126 131 125
0 0 0 0
0 0 0 0
0 0 0 0
0 0 0 0
0 0 0 0
0 0 0 0
1 0 0 0
13 0 0 0
22 13 4 0
50 58 70 95
115 134 135 130
175 219 245 240
251 327 313 280
253 341 332 296
195 269 267 246
129 180 194 194
1 30 50 65
0 0 0 0
0 0 0 0
0 0 0 0
0 0 0 0
0 0 0 0
0 0 0 0
1 0 0 0
13 3 0 0
24 19 13 5
56 71 88 115
129 139 133 134
189 243 244 248
255 316 305 273
248 304 276 254
187 253 244 254
119 194 191 187
0 15 22 21
0 0 0 0
0 0 0 0
0 0 0 0
0 0 0 0
0 0 0 0
0 0 0 0
8 0 0 0
13 2 0 0
33 27 24 21
89 121 126 127
145 192 201 217
222 286 254 259
252 327 303 266
212 294 255 255
152 228 251 255
44 116 130 127
0 0 0 0
0 0 0 0
0 0 0 0
0 0 0 0
0 0 0 0
0 0 0 0
0 0 0 0
11 0 0 0
16 8 0 0
50 53 60 78
107 126 130 131
163 202 218 246
248 302 274 274
255 302 268 257
193 260 245 245
137 192 208 218
3 40 64 96
0 0 0 0
0 0 0 0
0 0 0 0
0 0 0 0
0 0 0 0
0 0 0 0
1 0 0 0
15 1 0 0
27 20 15 7
67 79 104 128
131 142 139 135
185 240 254 250
249 333 310 274
238 326 299 256
182 258 253 245
113 167 161 147
0 0 0 0
0 0 0 0
0 0 0 0
0 0 0 0
0 0 0 0
0 0 0 0
0 0 0 0
3 0 0 0
16 4 0 0
32 23 18 7
68 87 115 121
134 157 164 158
202 254 252 261
253 299 273 264
230 302 256 261
178 250 251 247
93 156 139 130
0 0 0 0
0 0 0 0
0 0 0 0
0 0 0 0
0 0 0 0
0 0 0 0
0 0 0 0
8 0 0 0
17 6 0 0
33 27 24 17
82 113 135 122
143 180 189 197
213 276 259 260
255 305 284 254
221 292 261 248
159 234 252 233
58 124 133 134
0 0 0 0
0 0 0 0
0 0 0 0
0 0 0 0
0 0 0 0
0 0 0 0
1 0 0 0
13 1 0 0
19 13 3 1
48 59 69 91
109 137 141 127
169 212 239 228
249 324 312 277
254 315 300 256
200 262 260 237
132 177 184 185
6 30 50 65
0 0 0 0
0 0 0 0
0 0 0 0
0 0 0 0
0 0 0 0
0 0 0 0
3 0 0 0
11 0 0 0
25 17 8 2
53 61 71 94
119 131 134 149
183 225 244 247
254 310 295 259
251 326 305 265
194 259 257 255
130 182 190 194
0 13 22 20
0 0 0 0
0 0 0 0
0 0 0 0
0 0 0 0
0 0 0 0
0 0 0 0
2 0 0 0
17 3 0 0
31 27 22 20
70 94 118 133
129 159 155 147
204 257 254 262
253 301 274 266
228 295 254 251
170 247 246 236
86 157 149 136
0 0 0 0
0 0 0 0
0 0 0 0
0 0 0 0
0 0 0 0
0 0 0 0
0 0 0 0
8 0 0 0
21 8 1 0
37 30 27 26
79 112 132 118
141 176 185 186
221 282 250 251
251 326 299 263
219 296 257 257
159 233 254 228
53 124 142 124
0 0 0 0
0 0 0 0
0 0 0 0
0 0 0 0
0 0 0 0
0 0 0 0
0 0 0 0
8 0 0 0
13 6 0 0
41 44 47 60
95 122 129 124
151 190 201 218
241 285 257 255
253 304 275 251
207 270 256 248
140 196 217 245
21 67 110 130
0 0 0 0
0 0 0 0
0 0 0 0
0 0 0 0
0 0 0 0
0 0 0 0
1 0 0 0
18 3 0 0
27 22 19 16
72 92 119 136
138 159 158 153
202 250 257 254
253 328 307 266
238 323 300 249
180 258 246 253
103 182 174 158
0 1 0 0
0 0 0 0
0 0 0 0
0 0 0 0
0 0 0 0
0 0 0 0
0 0 0 0
5 0 0 0
21 7 1 0
37 38 41 44
87 120 131 128
138 181 190 194
217 284 253 252
255 305 279 263
219 290 256 255
158 228 250 255
55 127 138 130
0 0 0 0
0 0 0 0
0 0 0 0
0 0 0 0
0 0 0 0
0 0 0 0
3 0 0 0
14 2 0 0
19 8 1 0
42 43 47 55
107 134 129 129
162 206 226 246
246 319 301 265
249 332 315 270
198 269 264 242
131 193 210 218
5 49 77 119
0 0 0 0
0 0 0 0
0 0 0 0
0 0 0 0
0 0 0 0
0 0 0 0
5 0 0 0
13 3 0 0
27 20 13 8
67 83 109 119
126 161 159 150
185 251 257 251
251 310 288 256
243 293 265 254
184 255 244 250
111 188 183 177
0 6 4 0
0 0 0 0
0 0 0 0
0 0 0 0
0 0 0 0
0 0 0 0
0 0 0 0
1 0 0 0
15 3 0 0
34 30 29 29
75 100 125 126
138 169 181 184
206 260 252 248
255 306 287 250
222 297 257 242
166 245 245 239
71 134 148 131
0 0 0 0
0 0 0 0
0 0 0 0
0 0 0 0
0 0 0 0
0 0 0 0
1 0 0 0
5 0 0 0
18 6 1 0
40 39 42 50
96 129 131 130
155 195 209 225
231 299 265 258
253 335 306 263
215 293 262 257
145 218 244 232
32 96 133 122
0 0 0 0
0 0 0 0
0 0 0 0
0 0 0 0
0 0 0 0
0 0 0 0
2 0 0 0
11 0 0 0
24 15 6 2
55 66 81 106
120 131 137 131
181 222 247 244
256 312 301 268
249 325 306 261
187 262 254 241
125 180 185 179
0 11 17 10
0 0 0 0
0 0 0 0
0 0 0 0
0 0 0 0
0 0 0 0
0 0 0 0
7 0 0 0
10 0 0 0
32 27 25 26
74 97 126 120
134 163 164 154
206 259 255 247
255 302 279 257
228 294 255 251
168 247 247 238
85 153 140 138
0 0 0 0
0 0 0 0
0 0 0 0
0 0 0 0
0 0 0 0
0 0 0 0
0 0 0 0
7 0 0 0
21 9 2 0
35 31 32 27
84 115 123 121
138 179 181 187
221 283 252 254
254 305 274 254
220 286 258 251
158 232 255 225
51 121 137 130
0 0 0 0
0 0 0 0
0 0 0 0
0 0 0 0
0 0 0 0
0 0 0 0
2 0 0 0
8 0 0 0
17 7 0 0
41 47 53 66
98 125 131 127
153 194 206 224
237 309 277 259
255 306 278 262
203 264 256 258
133 190 204 217
14 57 92 126
0 0 0 0
0 0 0 0
0 0 0 0
0 0 0 0
0 0 0 0
0 0 0 0
2 0 0 0
11 0 0 0
18 8 1 0
49 51 54 72
115 134 128 135
172 213 233 254
251 303 288 254
248 322 295 254
193 259 254 255
127 179 177 177
1 20 29 26
0 0 0 0
0 0 0 0
0 0 0 0
0 0 0 0
0 0 0 0
0 0 0 0
1 0 0 0
16 2 0 0
30 21 21 15
73 96 121 117
133 163 163 155
203 254 253 256
253 301 275 267
233 301 263 253
181 252 248 241
93 160 150 131
0 0 0 0
0 0 0 0
0 0 0 0
0 0 0 0
0 0 0 0
0 0 0 0
0 0 0 0
7 0 0 0
13 1 0 0
28 21 14 6
70 86 112 115
133 158 159 151
207 255 258 257
252 306 284 250
234 306 262 263
171 248 251 233
88 150 135 140
0 0 0 0
0 0 0 0
0 0 0 0
0 0 0 0
0 0 0 0
0 0 0 0
0 0 0 0
4 0 0 0
17 6 0 0
32 30 27 24
85 118 122 121
144 187 200 210
215 279 250 258
250 303 274 256
220 287 247 254
160 233 248 249
56 129 136 131
0 0 0 0
0 0 0 0
0 0 0 0
0 0 0 0
0 0 0 0
0 0 0 0
1 0 0 0
15 1 0 0
24 16 9 2
49 54 63 81
114 134 129 142
170 213 228 252
250 323 308 268
250 320 297 258
204 271 256 237
131 187 201 209
1 24 42 55
0 0 0 0
0 0 0 0
0 0 0 0
0 0 0 0
0 0 0 0
0 0 0 0
2 0 0 0
15 1 0 0
18 13 1 0
56 70 86 119
118 149 130 145
182 243 232 255
253 312 291 255
246 307 277 252
188 252 258 247
123 167 174 172
0 3 1 0
0 0 0 0
0 0 0 0
0 0 0 0
0 0 0 0
0 0 0 0
0 0 0 0
1 0 0 0
14 2 0 0
25 12 2 0
53 60 72 93
115 136 134 126
174 223 246 247
254 307 288 256
249 308 279 254
198 259 246 255
127 175 171 165
0 8 9 1
0 0 0 0
0 0 0 0
0 0 0 0
0 0 0 0
0 0 0 0
0 0 0 0
3 0 0 0
6 0 0 0
23 13 4 0
52 59 73 93
109 134 135 143
174 219 244 243
249 326 311 280
254 316 299 260
197 259 256 261
134 177 188 197
0 27 43 58
0 0 0 0
0 0 0 0
0 0 0 0
0 0 0 0
0 0 0 0
0 0 0 0
2 0 0 0
16 4 0 0
26 12 6 0
58 71 87 120
128 134 152 142
187 233 254 240
256 309 294 255
247 303 269 259
190 252 257 244
130 172 180 175
0 6 5 1
0 0 0 0
0 0 0 0
0 0 0 0
0 0 0 0
0 0 0 0
0 0 0 0
1 0 0 0
17 2 0 0
18 13 1 0
59 70 85 116
123 126 138 133
177 218 248 243
251 307 294 267
247 302 278 253
194 256 253 252
124 166 161 144
0 1 0 0
0 0 0 0
0 0 0 0
0 0 0 0
0 0 0 0
0 0 0 0
0 0 0 0
4 0 0 0
11 0 0 0
27 17 9 3
53 61 73 97
120 142 133 138
177 228 254 232
252 332 319 283
247 331 317 268
185 257 248 256
128 185 193 198
0 21 34 43
0 0 0 0
0 0 0 0
0 0 0 0
0 0 0 0
0 0 0 0
0 0 0 0
7 0 0 0
18 5 0 0
34 32 30 31
73 101 124 125
130 180 191 193
207 269 253 252
247 322 302 265
221 298 260 259
172 249 242 252
68 132 133 131
0 0 0 0
0 0 0 0
0 0 0 0
0 0 0 0
0 0 0 0
0 0 0 0
0 0 0 0
12 0 0 0
18 7 0 0
44 47 53 65
93 122 137 126
151 188 203 216
234 305 272 267
254 313 284 255
216 282 253 252
147 213 232 249
30 87 131 134
0 0 0 0
0 0 0 0
0 0 0 0
0 0 0 0
0 0 0 0
0 0 0 0
3 0 0 0
10 0 0 0
26 18 12 4
58 70 88 110
124 133 146 133
187 241 256 251
253 316 300 260
243 297 265 260
188 256 241 244
124 178 173 159
0 4 3 0
0 0 0 0
0 0 0 0
0 0 0 0
0 0 0 0
0 0 0 0
0 0 0 0
4 0 0 0
9 0 0 0
21 8 1 0
50 60 66 87
113 131 124 133
171 213 232 252
249 325 307 268
255 311 296 258
191 261 255 255
125 197 204 213
0 33 50 70
0 0 0 0
0 0 0 0
0 0 0 0
0 0 0 0
0 0 0 0
0 0 0 0
4 0 0 0
14 0 0 0
26 13 5 0
55 65 78 99
123 141 131 138
183 228 251 250
253 310 292 257
249 306 276 246
198 256 259 254
129 181 186 183
0 16 22 23
0 0 0 0
0 0 0 0
0 0 0 0
0 0 0 0
0 0 0 0
0 0 0 0
7 0 0 0
23 6 2 0
38 38 38 44
83 117 124 131
142 184 194 204
212 271 256 257
250 325 304 265
224 302 264 262
164 241 259 246
62 133 129 126
0 0 0 0
0 0 0 0
0 0 0 0
0 0 0 0
0 0 0 0
0 0 0 0
0 0 0 0
7 0 0 0
19 10 2 0
45 50 54 68
106 132 129 134
166 211 230 250
247 302 277 257
256 308 278 249
202 260 255 254
131 203 217 239
3 49 82 123
0 0 0 0
0 0 0 0
0 0 0 0
0 0 0 0
0 0 0 0
0 0 0 0
6 0 0 0
11 0 0 0
25 16 7 1
59 68 86 117
124 133 132 135
181 233 254 240
252 334 321 292
244 326 312 268
182 261 258 257
125 182 188 183
0 9 16 6
0 0 0 0
0 0 0 0
0 0 0 0
0 0 0 0
0 0 0 0
0 0 0 0
5 0 0 0
11 1 0 0
26 12 7 0
60 71 92 118
126 137 157 143
184 234 261 241
255 306 294 260
246 299 267 255
196 253 256 255
125 164 160 137
0 2 0 0
0 0 0 0
0 0 0 0
0 0 0 0
0 0 0 0
0 0 0 0
0 0 0 0
1 0 0 0
13 3 0 0
25 20 14 10
66 82 106 131
134 155 152 144
195 255 253 250
252 333 313 274
233 321 291 259
180 251 249 249
95 158 138 133
0 0 0 0
0 0 0 0
0 0 0 0
0 0 0 0
0 0 0 0
0 0 0 0
0 0 0 0
4 0 0 0
17 4 0 0
35 24 21 15
79 107 131 130
135 168 176 175
209 263 263 250
250 318 297 255
228 305 264 247
166 248 252 228
68 131 141 135
0 0 0 0
0 0 0 0
0 0 0 0
0 0 0 0
0 0 0 0
0 0 0 0
1 0 0 0
4 0 0 0
21 7 2 0
44 45 50 57
99 128 138 135
157 192 210 228
230 298 261 256
253 314 285 250
218 285 255 254
151 218 246 249
37 101 133 129
0 0 0 0
0 0 0 0
0 0 0 0
0 0 0 0
0 0 0 0
0 0 0 0
6 0 0 0
10 1 0 0
18 9 0 0
50 61 72 94
111 131 137 129
178 222 244 253
251 308 288 258
252 328 308 266
196 262 254 255
124 188 195 189
0 31 46 61
0 0 0 0
0 0 0 0
0 0 0 0
0 0 0 0
0 0 0 0
0 0 0 0
5 0 0 0
11 1 0 0
26 15 6 1
63 76 96 122
127 142 137 140
188 238 261 245
255 317 310 279
248 305 281 254
190 250 257 246
117 174 177 166
0 1 1 0
0 0 0 0
0 0 0 0
0 0 0 0
0 0 0 0
0 0 0 0
0 0 0 0
2 0 0 0
13 3 0 0
27 22 17 15
73 95 121 121
138 163 164 161
206 258 261 241
253 303 277 258
230 302 259 248
176 253 248 241
88 152 140 126
0 0 0 0
0 0 0 0
0 0 0 0
0 0 0 0
0 0 0 0
0 0 0 0
0 0 0 0
4 0 0 0
11 1 0 0
26 21 13 8
72 96 122 118
130 156 155 136
207 258 258 257
253 301 274 265
228 295 254 259
170 247 243 237
83 155 143 127
0 0 0 0
0 0 0 0
0 0 0 0
0 0 0 0
0 0 0 0
0 0 0 0
0 0 0 0
13 0 0 0
18 10 3 0
45 49 55 66
101 133 127 130
154 199 215 238
238 313 284 260
255 317 298 258
207 273 263 247
132 211 233 248
16 77 122 130
0 0 0 0
0 0 0 0
0 0 0 0
0 0 0 0
0 0 0 0
0 0 0 0
2 0 0 0
12 1 0 0
25 20 15 9
58 73 94 126
130 146 134 156
194 248 251 245
253 313 296 267
242 301 264 252
182 251 257 252
116 171 165 147
0 1 0 0
0 0 0 0
0 0 0 0
0 0 0 0
0 0 0 0
0 0 0 0
0 0 0 0
3 0 0 0
17 3 0 0
32 28 22 21
73 96 124 115
133 160 160 145
204 252 262 255
252 327 302 264
228 309 272 251
173 255 247 245
89 154 147 132
0 0 0 0
0 0 0 0
0 0 0 0
0 0 0 0
0 0 0 0
0 0 0 0
0 0 0 0
6 0 0 0
22 9 2 0
33 31 30 27
86 118 125 128
141 180 190 193
220 282 255 259
252 305 280 258
216 281 255 250
155 223 248 245
51 120 144 129
0 0 0 0
0 0 0 0
0 0 0 0
0 0 0 0
0 0 0 0
0 0 0 0
0 0 0 0
13 0 0 0
20 7 0 0
50 53 61 79
110 135 138 133
165 205 226 248
249 320 305 270
249 330 315 263
194 267 261 234
137 191 205 216
2 39 58 86
0 0 0 0
0 0 0 0
0 0 0 0
0 0 0 0
0 0 0 0
0 0 0 0
0 0 0 0
8 0 0 0
21 11 3 0
50 50 57 68
115 131 137 131
171 212 232 248
254 302 288 255
251 323 301 261
192 258 255 246
128 199 220 232
0 39 69 105
0 0 0 0
0 0 0 0
0 0 0 0
0 0 0 0
0 0 0 0
0 0 0 0
7 0 0 0
11 1 0 0
26 16 9 1
63 75 96 130
128 142 135 153
192 249 247 246
255 313 295 257
239 323 291 259
192 258 248 250
117 171 164 148
0 2 0 0
0 0 0 0
0 0 0 0
0 0 0 0
0 0 0 0
0 0 0 0
0 0 0 0
1 0 0 0
15 2 0 0
23 15 7 1
60 74 92 124
125 135 150 138
187 242 256 245
254 315 305 264
244 305 275 255
183 257 247 241
119 191 203 196
0 8 12 6
0 0 0 0
0 0 0 0
0 0 0 0
0 0 0 0
0 0 0 0
0 0 0 0
4 0 0 0
11 0 0 0
31 24 22 21
75 95 124 117
132 166 169 164
210 263 253 246
252 310 290 258
223 296 256 258
169 246 253 237
77 135 153 137
0 0 0 0
0 0 0 0
0 0 0 0
0 0 0 0
0 0 0 0
0 0 0 0
0 0 0 0
6 0 0 0
14 1 0 0
35 29 25 22
90 119 126 129
144 182 194 198
221 282 257 259
250 332 307 268
224 301 261 254
161 241 261 246
47 121 139 132
0 0 0 0
0 0 0 0
0 0 0 0
0 0 0 0
0 0 0 0
0 0 0 0
0 0 0 0
6 0 0 0
22 11 3 0
50 58 66 87
112 125 133 136
175 215 243 241
249 321 306 271
248 333 314 265
193 264 264 234
130 205 223 242
2 46 82 124
0 0 0 0
0 0 0 0
0 0 0 0
0 0 0 0
0 0 0 0
0 0 0 0
3 0 0 0
16 2 0 0
25 17 9 1
57 69 87 116
130 140 132 137
190 244 244 245
254 318 304 269
247 306 281 251
188 253 250 248
124 175 177 165
0 6 4 0
0 0 0 0
0 0 0 0
0 0 0 0
0 0 0 0
0 0 0 0
0 0 0 0
1 0 0 0
11 3 0 0
28 22 15 14
71 92 116 131
132 158 157 149
202 252 248 248
253 297 272 267
229 299 261 252
180 251 254 248
95 156 141 128
0 0 0 0
0 0 0 0
0 0 0 0
0 0 0 0
0 0 0 0
0 0 0 0
0 0 0 0
7 0 0 0
19 7 0 0
36 33 34 39
78 109 128 131
137 177 184 195
213 272 254 251
252 302 277 257
220 288 256 255
163 239 259 248
63 129 128 130
0 0 0 0
0 0 0 0
0 0 0 0
0 0 0 0
0 0 0 0
0 0 0 0
0 0 0 0
9 0 0 0
16 6 0 0
42 42 48 55
92 126 130 129
151 193 209 221
235 308 279 258
253 309 281 258
213 283 259 255
147 212 244 238
27 87 130 137
0 0 0 0
0 0 0 0
0 0 0 0
0 0 0 0
0 0 0 0
0 0 0 0
2 0 0 0
8 0 0 0
21 12 2 0
50 52 59 73
115 134 128 136
172 213 232 252
256 305 288 255
251 328 308 267
194 261 254 256
127 190 201 206
0 34 53 76
0 0 0 0
0 0 0 0
0 0 0 0
0 0 0 0
0 0 0 0
0 0 0 0
2 0 0 0
11 0 0 0
22 11 1 0
59 73 86 119
125 130 142 131
184 234 254 244
251 313 301 265
244 296 265 250
193 253 259 241
124 168 171 156
0 4 0 0
0 0 0 0
0 0 0 0
0 0 0 0
0 0 0 0
0 0 0 0
0 0 0 0
1 0 0 0
13 1 0 0
25 21 15 11
72 90 119 130
136 155 156 146
197 253 253 254
253 310 290 264
235 315 278 251
176 252 250 252
95 163 150 130
0 0 0 0
0 0 0 0
0 0 0 0
0 0 0 0
0 0 0 0
0 0 0 0
0 0 0 0
7 0 0 0
17 7 0 0
35 33 34 38
81 112 141 128
131 191 199 213
212 279 253 263
255 310 284 253
225 297 257 242
166 245 248 241
68 132 129 130
0 0 0 0
0 0 0 0
0 0 0 0
0 0 0 0
0 0 0 0
0 0 0 0
0 0 0 0
8 0 0 0
21 11 1 0
39 42 41 45
94 122 134 123
149 189 198 213
234 306 273 257
252 313 284 253
211 274 251 245
145 203 230 252
22 70 110 130
0 0 0 0
0 0 0 0
0 0 0 0
0 0 0 0
0 0 0 0
0 0 0 0
3 0 0 0
8 0 0 0
17 7 0 0
50 55 65 84
110 129 133 131
176 213 247 245
250 322 314 277
253 340 333 295
201 276 249 252
132 185 192 194
0 28 43 53
0 0 0 0
0 0 0 0
0 0 0 0
0 0 0 0
0 0 0 0
0 0 0 0
5 0 0 0
19 3 0 0
28 21 18 13
68 83 110 121
136 155 156 153
197 252 254 256
251 331 312 277
232 321 294 255
175 254 259 244
94 160 152 129
0 0 0 0
0 0 0 0
0 0 0 0
0 0 0 0
0 0 0 0
0 0 0 0
0 0 0 0
7 0 0 0
10 2 0 0
31 25 22 22
73 96 123 115
135 160 161 145
212 261 248 248
251 309 286 255
229 299 265 248
170 248 246 245
84 153 145 128
0 0 0 0
0 0 0 0
0 0 0 0
0 0 0 0
0 0 0 0
0 0 0 0
0 0 0 0
11 0 0 0
13 6 0 0
38 38 39 46
95 128 130 128
151 186 197 200
231 295 265 258
254 308 281 263
216 283 259 247
151 220 246 236
40 102 136 131
0 0 0 0
0 0 0 0
0 0 0 0
0 0 0 0
0 0 0 0
0 0 0 0
4 0 0 0
16 4 0 0
18 11 1 0
56 69 83 113
124 134 136 138
181 237 260 241
253 316 303 265
249 312 288 253
190 255 258 252
126 176 178 172
0 10 11 4
0 0 0 0
0 0 0 0
0 0 0 0
0 0 0 0
0 0 0 0
0 0 0 0
2 0 0 0
15 4 0 0
27 19 12 5
70 92 122 131
135 157 164 160
198 257 251 256
251 313 293 254
234 314 279 253
177 255 245 247
93 166 150 130
0 0 0 0
0 0 0 0
0 0 0 0
0 0 0 0
0 0 0 0
0 0 0 0
0 0 0 0
4 0 0 0
9 1 0 0
29 23 21 21
7150 138 249
255 309 289 256
244 298 262 252
187 254 248 246
116 167 172 159
0 0 0 0
0 0 0 0
0 0 0 0
0 0 0 0
0 0 0 0
0 0 0 0
0 0 0 0
4 0 0 0
10 1 0 0
30 24 21 21
73 96 123 115
131 159 156 143
205 257 252 254
251 324 299 265
227 306 270 251
169 250 251 233
81 142 136 131
0 0 0 0
0 0 0 0
0 0 0 0
0 0 0 0
0 0 0 0
0 0 0 0
0 0 0 0
7 0 0 0
13 3 0 0
36 32 34 35
83 115 131 125
143 188 200 213
223 290 260 258
252 329 305 270
218 294 258 258
160 235 255 236
44 116 133 130
0 0 0 0
0 0 0 0
0 0 0 0
0 0 0 0
0 0 0 0
0 0 0 0
1 0 0 0
11 0 0 0
19 7 0 0
49 55 61 81
113 129 135 134
174 214 236 253
249 321 304 266
251 332 317 264
198 272 254 243
135 191 204 218
1 32 52 78
0 0 0 0
0 0 0 0
0 0 0 0
0 0 0 0
0 0 0 0
0 0 0 0
1 0 0 0
12 1 0 0
25 17 9 2
59 71 87 121
124 129 142 131
181 227 254 231
252 333 316 283
249 319 300 253
195 256 261 257
125 174 176 168
0 7 5 0
0 0 0 0
0 0 0 0
0 0 0 0
0 0 0 0
0 0 0 0
0 0 0 0
2 0 0 0
8 0 0 0
15 6 0 0
44 49 56 68
104 130 126 130
163 206 221 247
244 315 293 265
244 328 303 263
189 263 257 258
133 182 195 205
2 31 54 75
0 0 0 0
0 0 0 0
0 0 0 0
0 0 0 0
0 0 0 0
0 0 0 0
7 0 0 0
18 2 0 0
25 20 16 8
63 79 102 130
126 163 159 158
187 248 253 254
251 332 314 279
238 329 308 263
183 259 260 260
113 166 163 145
0 0 0 0
0 0 0 0
0 0 0 0
0 0 0 0
0 0 0 0
0 0 0 0
0 0 0 0
2 0 0 0
17 6 0 0
26 19 10 4
68 83 107 112
135 155 156 151
198 253 257 259
253 313 295 262
233 308 273 259
178 255 242 245
100 169 157 137
0 0 0 0
0 0 0 0
0 0 0 0
0 0 0 0
0 0 0 0
0 0 0 0
0 0 0 0
7 0 0 0
15 1 0 0
37 34 34 35
89 119 129 132
141 181 190 198
218 283 256 256
253 331 308 267
220 302 269 251
153 234 249 260
47 122 138 127
0 0 0 0
0 0 0 0
0 0 0 0
0 0 0 0
0 0 0 0
0 0 0 0
1 0 0 0
9 0 0 0
21 11 3 0
42 46 50 61
108 131 129 137
169 216 239 235
247 319 304 268
253 340 326 284
200 276 249 251
134 194 203 216
4 41 62 89
0 0 0 0
0 0 0 0
0 0 0 0
0 0 0 0
0 0 0 0
0 0 0 0
1 0 0 0
10 0 0 0
26 16 11 2
54 67 82 111
126 134 153 142
182 232 254 245
252 332 321 292
244 309 285 257
186 253 254 250
124 171 168 158
0 1 0 0
0 0 0 0
0 0 0 0
0 0 0 0
0 0 0 0
0 0 0 0
0 0 0 0
3 0 0 0
12 0 0 0
18 9 0 0
50 62 69 93
117 133 127 127
178 228 246 248
251 311 292 263
250 330 309 263
194 264 260 231
128 178 182 175
0 20 26 24
0 0 0 0
0 0 0 0
0 0 0 0
0 0 0 0
0 0 0 0
0 0 0 0
7 0 0 0
17 4 0 0
32 26 22 20
70 91 115 127
133 163 160 150
201 253 254 263
255 314 300 261
234 312 280 246
175 255 259 252
86 152 134 134
0 0 0 0
0 0 0 0
0 0 0 0
0 0 0 0
0 0 0 0
0 0 0 0
0 0 0 0
13 0 0 0
21 10 2 0
42 45 47 57
97 129 128 138
151 198 208 231
234 306 277 258
254 314 291 256
217 289 257 255
151 227 248 250
39 104 138 132
0 0 0 0
0 0 0 0
0 0 0 0
0 0 0 0
0 0 0 0
0 0 0 0
4 0 0 0
16 3 0 0
25 21 17 12
69 91 121 127
132 151 153 140
194 253 260 252
252 311 288 255
238 318 282 255
176 256 242 254
95 170 153 133
0 2 0 0
0 0 0 0
0 0 0 0
0 0 0 0
0 0 0 0
0 0 0 0
0 0 0 0
1 0 0 0
14 4 0 0
26 20 12 5
68 91 119 129
134 156 160 157
201 253 251 256
250 304 281 254
228 302 264 252
178 252 248 249
96 163 158 141
0 0 0 0
0 0 0 0
0 0 0 0
0 0 0 0
0 0 0 0
0 0 0 0
0 0 0 0
7 0 0 0
14 1 0 0
29 23 17 10
81 108 127 131
138 174 179 182
214 269 265 252
250 303 280 260
217 282 255 255
160 230 250 247
57 127 134 128
0 0 0 0
0 0 0 0
0 0 0 0
0 0 0 0
0 0 0 0
0 0 0 0
0 0 0 0
12 1 0 0
21 12 5 0
49 57 67 93
105 129 133 133
162 203 224 245
244 310 290 259
245 326 301 257
191 258 264 258
134 181 191 202
4 32 53 74
0 0 0 0
0 0 0 0
0 0 0 0
0 0 0 0
0 0 0 0
0 0 0 0
1 0 0 0
11 0 0 0
21 8 1 0
51 58 69 94
115 130 134 127
170 213 234 249
254 305 288 258
249 322 297 257
193 262 255 256
127 179 182 184
1 29 40 50
0 0 0 0
0 0 0 0
0 0 0 0
0 0 0 0
0 0 0 0
0 0 0 0
2 0 0 0
12 1 0 0
28 20 14 10
66 83 106 133
134 156 149 144
199 258 250 261
253 314 294 261
234 315 281 253
176 252 262 247
93 160 146 132
0 0 0 0
0 0 0 0
0 0 0 0
0 0 0 0
0 0 0 0
0 0 0 0
0 0 0 0
6 0 0 0
12 1 0 0
27 23 14 6
68 88 115 117
135 154 159 142
205 254 255 258
253 300 274 266
228 295 255 251
171 248 247 240
89 160 152 136
0 0 0 0
0 0 0 0
0 0 0 0
0 0 0 0
0 0 0 0
0 0 0 0
0 0 0 0
8 0 0 0
19 8 1 0
39 38 39 43
83 115 123 124
145 188 200 216
221 287 257 252
254 309 284 252
220 289 257 256
159 228 251 251
52 121 137 126
0 0 0 0
0 0 0 0
0 0 0 0
0 0 0 0
0 0 0 0
0 0 0 0
2 0 0 0
11 0 0 0
15 5 0 0
48 50 55 77
103 131 127 127
166 212 239 230
251 324 313 279
250 342 333 298
197 271 258 250
134 193 217 233
2 40 66 103
0 0 0 0
0 0 0 0
0 0 0 0
0 0 0 0
0 0 0 0
0 0 0 0
1 0 0 0
12 3 0 0
25 19 12 4
60 74 93 117
129 145 134 147
188 243 260 250
255 318 309 280
242 296 269 259
192 253 260 241
118 166 164 141
0 0 0 0
0 0 0 0
0 0 0 0
0 0 0 0
0 0 0 0
0 0 0 0
0 0 0 0
1 0 0 0
13 3 0 0
26 22 20 17
72 95 124 119
133 161 165 158
202 255 246 261
252 332 312 279
235 323 298 252
179 250 258 252
91 146 132 132
0 0 0 0
0 0 0 0
0 0 0 0
0 0 0 0
0 0 0 0
0 0 0 0
0 0 0 0
7 0 0 0
13 1 0 0
26 25 13 8
73 99 126 120
136 167 173 172
207 262 251 246
251 309 290 259
233 309 266 248
175 250 262 248
83 138 131 134
0 0 0 0
0 0 0 0
0 0 0 0
0 0 0 0
0 0 0 0
0 0 0 0
0 0 0 0
10 0 0 0
22 13 3 0
45 49 57 72
96 128 130 129
150 186 199 203
233 298 262 257
253 311 283 255
209 272 262 249
144 206 232 251
26 79 129 130
0 0 0 0
0 0 0 0
0 0 0 0
0 0 0 0
0 0 0 0
0 0 0 0
2 0 0 0
10 0 0 0
24 15 7 2
53 61 73 97
119 142 131 136
175 228 250 254
251 311 294 263
244 318 292 250
189 258 248 253
125 179 179 174
0 12 18 10
0 0 0 0
0 0 0 0
0 0 0 0
0 0 0 0
0 0 0 0
0 0 0 0
6 0 0 0
12 1 0 0
26 19 11 3
72 90 121 130
132 157 164 160
198 255 250 263
252 314 293 266
233 314 277 251
173 253 258 253
97 167 153 136
0 0 0 0
0 0 0 0
0 0 0 0
0 0 0 0
0 0 0 0
0 0 0 0
0 0 0 0
8 0 0 0
13 2 0 0
31 23 17 11
72 99 124 116
134 170 175 173
209 261 251 249
250 309 291 260
221 293 265 248
168 246 248 247
74 138 138 134
0 0 0 0
0 0 0 0
0 0 0 0
0 0 0 0
0 0 0 0
0 0 0 0
0 0 0 0
14 0 0 0
22 11 5 0
47 52 61 77
107 130 134 128
167 214 235 251
243 316 299 265
251 333 318 276
198 271 268 247
133 199 224 246
12 53 92 129
0 0 0 0
0 0 0 0
0 0 0 0
0 0 0 0
0 0 0 0
0 0 0 0
1 0 0 0
13 3 0 0
24 21 17 14
72 91 122 129
134 159 167 165
204 252 253 254
254 306 284 253
238 316 279 254
177 253 255 252
99 167 156 134
0 0 0 0
0 0 0 0
0 0 0 0
0 0 0 0
0 0 0 0
0 0 0 0
0 0 0 0
1 0 0 0
15 3 0 0
27 21 13 9
72 92 120 131
132 156 151 135
206 256 253 253
252 328 304 264
230 312 278 245
178 259 245 251
91 160 147 128
0 0 0 0
0 0 0 0
0 0 0 0
0 0 0 0
0 0 0 0
0 0 0 0
0 0 0 0
2 0 0 0
17 4 0 0
38 35 34 34
84 119 126 126
137 179 183 192
218 278 255 260
251 305 284 255
218 289 258 248
158 228 249 253
51 122 138 129
0 0 0 0
0 0 0 0
0 0 0 0
0 0 0 0
0 0 0 0
0 0 0 0
2 0 0 0
9 0 0 0
19 8 1 0
41 48 51 65
94 125 133 128
154 191 204 218
235 303 267 262
253 314 281 252
213 278 252 244
147 206 231 254
24 79 124 125
0 0 0 0
0 0 0 0
0 0 0 0
0 0 0 0
0 0 0 0
0 0 0 0
1 0 0 0
15 3 0 0
26 20 11 6
66 83 108 117
132 149 146 137
186 247 246 247
251 333 323 293
238 325 303 257
182 257 259 252
116 166 165 149
0 0 0 0
0 0 0 0
0 0 0 0
0 0 0 0
0 0 0 0
0 0 0 0
0 0 0 0
5 0 0 0
13 0 0 0
26 19 11 3
71 91 117 132
133 159 159 159
205 253 253 262
254 309 284 260
239 313 275 252
179 255 250 248
91 160 151 132
0 0 0 0
0 0 0 0
0 0 0 0
0 0 0 0
0 0 0 0
0 0 0 0
0 0 0 0
1 0 0 0
17 6 0 0
32 27 24 19
84 111 128 120
141 181 187 194
217 276 258 254
249 327 296 256
220 295 258 255
158 236 258 233
53 123 132 129
0 0 0 0
0 0 0 0
0 0 0 0
0 0 0 0
0 0 0 0
0 0 0 0
1 0 0 0
8 0 0 0
21 11 1 0
43 43 48 53
107 134 128 132
167 213 231 250
250 304 283 256
260 316 291 255
209 273 248 257
128 201 213 223
6 54 91 127
0 0 0 0
0 0 0 0
0 0 0 0
0 0 0 0
0 0 0 0
0 0 0 0
2 0 0 0
15 2 0 0
21 10 5 0
60 67 83 112
122 147 127 136
179 236 251 232
253 335 320 288
248 332 318 272
186 263 257 247
124 181 191 194
0 8 11 7
0 0 0 0
0 0 0 0
0 0 0 0
0 0 0 0
0 0 0 0
0 0 0 0
2 0 0 0
17 4 0 0
23 18 9 1
55 69 81 109
123 133 143 133
185 235 258 249
252 333 321 296
242 309 287 263
193 254 255 261
123 168 168 160
0 1 2 0
0 0 0 0
0 0 0 0
0 0 0 0
0 0 0 0
0 0 0 0
0 0 0 0
3 0 0 0
10 0 0 0
28 19 16 8
67 87 110 119
128 172 171 170
194 254 249 247
252 333 318 287
234 322 299 255
180 251 259 251
108 177 174 158
0 1 0 0
0 0 0 0
0 0 0 0
0 0 0 0
0 0 0 0
0 0 0 0
0 0 0 0
3 0 0 0
16 5 0 0
33 28 23 18
78 103 126 126
134 189 200 211
208 274 255 251
254 303 275 259
226 295 262 246
166 241 256 249
68 134 131 131
0 0 0 0
0 0 0 0
0 0 0 0
0 0 0 0
0 0 0 0
0 0 0 0
2 0 0 0
8 0 0 0
21 10 2 0
44 49 56 68
103 131 132 136
166 208 238 228
246 317 303 266
254 315 301 256
205 272 254 247
128 201 221 241
7 58 104 132
0 0 0 0
0 0 0 0
0 0 0 0
0 0 0 0
0 0 0 0
0 0 0 0
4 0 0 0
11 0 0 0
21 11 3 0
60 71 87 118
125 131 143 134
176 227 247 254
251 328 312 281
245 324 309 260
182 254 257 237
122 181 188 186
0 12 16 15
0 0 0 0
0 0 0 0
0 0 0 0
0 0 0 0
0 0 0 0
0 0 0 0
11 0 0 0
21 12 2 0
39 41 40 44
92 125 128 127
150 195 209 231
234 307 279 248
255 314 292 256
218 285 251 257
149 214 236 250
36 99 134 128
0 0 0 0
0 0 0 0
0 0 0 0
0 0 0 0
0 0 0 0
0 0 0 0
2 0 0 0
16 4 0 0
20 8 1 0
50 56 66 87
113 126 129 134
172 207 226 248
254 301 281 255
251 324 296 257
198 267 257 237
132 175 184 178
0 27 42 50
0 0 0 0
0 0 0 0
0 0 0 0
0 0 0 0
0 0 0 0
0 0 0 0
1 0 0 0
15 2 0 0
27 20 15 9
61 74 94 124
132 148 136 135
192 250 248 245
256 320 310 269
244 301 270 258
194 253 255 255
120 182 183 175
0 7 4 0
0 0 0 0
0 0 0 0
0 0 0 0
0 0 0 0
0 0 0 0
0 0 0 0
5 0 0 0
8 0 0 0
21 8 1 0
51 59 69 91
119 133 128 136
175 220 245 234
252 309 298 269
249 323 303 255
193 260 250 260
127 205 224 248
0 35 62 95
0 0 0 0
0 0 0 0
0 0 0 0
0 0 0 0
0 0 0 0
0 0 0 0
3 0 0 0
16 2 0 0
28 21 18 15
74 91 120 137
133 163 160 156
198 254 254 250
252 305 280 252
229 310 263 253
171 249 252 230
90 152 140 127
0 0 0 0
0 0 0 0
0 0 0 0
0 0 0 0
0 0 0 0
0 0 0 0
0 0 0 0
9 0 0 0
22 10 2 0
37 33 32 32
90 118 131 128
141 174 177 183
218 274 257 248
253 295 272 259
215 275 253 249
154 219 242 248
45 110 132 132
0 0 0 0
0 0 0 0
0 0 0 0
0 0 0 0
0 0 0 0
0 0 0 0
1 0 0 0
12 1 0 0
24 15 7 2
51 58 69 85
116 134 130 127
171 217 235 255
254 306 289 260
248 329 305 266
193 263 260 240
126 180 187 187
3 25 42 53
0 0 0 0
0 0 0 0
0 0 0 0
0 0 0 0
0 0 0 0
0 0 0 0
6 0 0 0
17 5 0 0
28 26 21 19
66 88 116 121
138 159 165 159
199 256 253 256
252 334 313 274
232 317 287 253
180 251 259 252
94 153 138 126
0 0 0 0
0 0 0 0
0 0 0 0
0 0 0 0
0 0 0 0
0 0 0 0
0 0 0 0
3 0 0 0
17 6 0 0
30 26 21 16
80 106 131 131
139 173 190 200
209 259 260 258
250 326 307 272
224 305 266 255
162 250 249 241
61 129 136 126
0 0 0 0
0 0 0 0
0 0 0 0
0 0 0 0
0 0 0 0
0 0 0 0
0 0 0 0
7 0 0 0
16 2 0 0
38 35 34 34
92 124 131 123
146 184 195 201
234 302 268 258
256 308 277 255
212 275 248 256
142 203 226 248
26 74 119 133
0 0 0 0
0 0 0 0
0 0 0 0
0 0 0 0
0 0 0 0
0 0 0 0
4 0 0 0
16 3 0 0
27 21 15 9
56 69 87 118
126 139 137 135
187 236 261 246
257 310 299 265
246 297 264 258
196 250 256 235
129 171 178 172
0 3 4 0
0 0 0 0
0 0 0 0
0 0 0 0
0 0 0 0
0 0 0 0
0 0 0 0
3 0 0 0
16 2 0 0
26 21 16 13
74 91 119 130
139 160 160 151
202 252 255 249
256 303 284 256
233 308 267 257
173 254 260 245
100 171 167 153
0 0 0 0
0 0 0 0
0 0 0 0
0 0 0 0
0 0 0 0
0 0 0 0
0 0 0 0
5 0 0 0
19 7 0 0
29 20 0
0 0 0 0
0 0 0 0
2 0 0 0
16 3 0 0
33 30 26 28
73 99 127 124
130 160 160 152
201 257 252 257
252 307 283 258
229 302 261 256
168 248 240 229
83 153 139 129
0 0 0 0
0 0 0 0
0 0 0 0
0 0 0 0
0 0 0 0
0 0 0 0
0 0 0 0
10 0 0 0
18 8 0 0
39 44 43 51
93 130 127 130
145 188 198 201
224 294 260 250
255 310 283 251
215 284 263 250
151 222 250 249
38 104 135 129
0 0 0 0
0 0 0 0
0 0 0 0
0 0 0 0
0 0 0 0
0 0 0 0
4 0 0 0
10 1 0 0
22 17 5 1
57 68 86 119
121 134 130 132
176 227 250 247
254 306 288 259
244 301 265 257
194 252 256 241
129 177 182 182
0 11 18 15
0 0 0 0
0 0 0 0
0 0 0 0
0 0 0 0
0 0 0 0
0 0 0 0
8 0 0 0
18 9 0 0
32 32 23 23
77 113 132 121
134 171 176 171
210 267 261 254
254 298 278 255
225 289 257 248
163 232 246 252
66 131 144 129
0 0 0 0
0 0 0 0
0 0 0 0
0 0 0 0
0 0 0 0
0 0 0 0
1 0 0 0
12 0 0 0
21 12 4 1
53 57 71 89
110 126 128 131
167 204 216 241
251 322 305 275
254 315 298 256
199 264 261 238
138 185 200 208
7 38 62 91
0 0 0 0
0 0 0 0
0 0 0 0
0 0 0 0
0 0 0 0
0 0 0 0
3 0 0 0
9 0 0 0
15 7 0 0
45 50 57 73
101 129 126 127
167 215 240 232
249 321 309 268
249 333 321 273
196 268 265 244
132 183 198 208
7 38 64 92
0 0 0 0
0 0 0 0
0 0 0 0
0 0 0 0
0 0 0 0
0 0 0 0
1 0 0 0
11 0 0 0
26 15 8 1
53 61 71 94
120 133 134 136
183 233 250 230
255 316 302 266
250 333 312 267
191 263 254 257
128 182 190 188
0 15 23 22
0 0 0 0
0 0 0 0
0 0 0 0
0 0 0 0
0 0 0 0
0 0 0 0
6 0 0 0
10 2 0 0
29 23 21 17
70 88 114 127
134 163 159 156
205 254 256 255
253 308 288 254
231 303 267 255
171 245 259 246
89 153 143 134
0 0 0 0
0 0 0 0
0 0 0 0
0 0 0 0
0 0 0 0
0 0 0 0
0 0 0 0
6 0 0 0
16 1 0 0
35 27 23 18
88 115 119 130
147 186 196 205
218 279 259 259
252 309 281 248
219 285 258 255
159 228 253 252
53 125 129 133
0 0 0 0
0 0 0 0
0 0 0 0
0 0 0 0
0 0 0 0
0 0 0 0
1 0 0 0
14 0 0 0
22 9 1 0
49 54 64 81
105 132 129 136
168 214 239 238
247 323 313 280
254 317 303 266
198 265 256 247
134 181 192 197
3 36 52 70
0 0 0 0
0 0 0 0
0 0 0 0
0 0 0 0
0 0 0 0
0 0 0 0
1 0 0 0
12 1 0 0
25 15 7 1
59 69 86 119
127 134 131 147
182 235 250 233
252 316 302 267
246 326 304 255
185 260 255 255
121 197 203 210
0 31 48 66
0 0 0 0
0 0 0 0
0 0 0 0
0 0 0 0
0 0 0 0
0 0 0 0
9 0 0 0
18 6 0 0
34 31 29 30
73 102 126 123
132 174 178 182
211 260 257 255
252 322 299 259
228 310 268 254
172 254 255 246
72 132 134 136
0 0 0 0
0 0 0 0
0 0 0 0
0 0 0 0
0 0 0 0
0 0 0 0
1 0 0 0
8 0 0 0
19 10 2 0
43 48 55 66
95 124 132 131
152 184 195 211
237 305 273 253
256 309 280 259
213 279 252 249
146 209 235 247
29 84 130 131
0 0 0 0
0 0 0 0
0 0 0 0
0 0 0 0
0 0 0 0
0 0 0 0
4 0 0 0
8 0 0 0
19 7 0 0
50 54 64 80
113 131 134 137
170 206 227 251
251 318 302 265
251 333 316 265
198 268 262 240
138 192 212 228
7 42 73 110
0 0 0 0
0 0 0 0
0 0 0 0
0 0 0 0
0 0 0 0
0 0 0 0
3 0 0 0
10 0 0 0
29 20 16 12
73 93 118 133
133 159 158 151
205 254 253 254
252 307 284 256
234 313 273 247
177 258 244 251
93 160 143 133
0 0 0 0
0 0 0 0
0 0 0 0
0 0 0 0
0 0 0 0
0 0 0 0
0 0 0 0
5 0 0 0
12 1 0 0
32 25 21 13
82 107 127 135
138 176 182 184
213 272 254 246
254 304 279 248
220 290 256 248
159 233 255 247
65 131 147 135
0 0 0 0
0 0 0 0
0 0 0 0
0 0 0 0
0 0 0 0
0 0 0 0
1 0 0 0
13 1 0 0
28 15 11 1
54 54 73 90
119 134 130 131
171 217 240 233
255 305 291 257
252 331 308 264
196 267 256 232
127 193 202 206
0 34 58 80
0 0 0 0
0 0 0 0
0 0 0 0
0 0 0 0
0 0 0 0
0 0 0 0
7 0 0 0
18 3 0 0
28 23 20 17
72 93 120 136
131 158 159 155
199 255 254 242
253 309 288 257
234 315 274 252
181 258 245 247
102 174 164 142
0 0 0 0
0 0 0 0
0 0 0 0
0 0 0 0
0 0 0 0
0 0 0 0
0 0 0 0
5 0 0 0
17 8 0 0
35 38 38 41
84 119 129 128
137 178 186 194
218 281 250 256
249 326 296 256
220 298 264 252
155 232 253 229
51 125 132 124
0 0 0 0
0 0 0 0
0 0 0 0
0 0 0 0
0 0 0 0
0 0 0 0
1 0 0 0
8 0 0 0
17 4 0 0
45 46 50 61
102 131 136 131
163 206 230 246
249 303 283 255
252 304 278 251
201 260 249 250
131 203 219 244
11 58 100 130
0 0 0 0
0 0 0 0
0 0 0 0
0 0 0 0
0 0 0 0
0 0 0 0
8 0 0 0
18 6 0 0
27 23 14 7
67 83 108 112
135 154 155 147
195 255 252 253
252 310 288 255
236 316 281 248
179 257 242 249
103 178 165 147
0 0 0 0
0 0 0 0
0 0 0 0
0 0 0 0
0 0 0 0
0 0 0 0
0 0 0 0
6 0 0 0
10 1 0 0
35 30 28 29
81 104 125 130
139 176 182 187
214 272 254 253
253 328 311 273
215 294 259 247
159 232 255 234
57 128 138 135
0 0 0 0
0 0 0 0
0 0 0 0
0 0 0 0
0 0 0 0
0 0 0 0
1 0 0 0
8 0 0 0
15 4 0 0
44 46 50 58
103 131 136 130
161 203 228 250
242 293 269 265
256 302 269 264
202 260 254 250
132 205 231 249
8 57 96 128
0 0 0 0
0 0 0 0
0 0 0 0
0 0 0 0
0 0 0 0
0 0 0 0
4 0 0 0
15 2 0 0
24 16 8 2
50 58 69 89
116 128 139 130
178 225 246 247
253 303 280 256
250 309 276 258
205 263 251 253
132 172 173 163
0 12 15 5
0 0 0 0
0 0 0 0
0 0 0 0
0 0 0 0
0 0 0 0
0 0 0 0
1 0 0 0
13 2 0 0
27 19 12 3
60 74 94 120
126 142 134 135
188 245 248 248
252 336 325 296
245 314 294 262
192 257 246 251
118 183 179 167
0 10 9 0
0 0 0 0
0 0 0 0
0 0 0 0
0 0 0 0
0 0 0 0
0 0 0 0
4 0 0 0
15 1 0 0
27 19 11 3
71 92 120 129
134 159 164 159
198 257 250 263
252 314 295 263
233 314 279 250
176 253 246 242
93 159 151 130
0 0 0 0
0 0 0 0
0 0 0 0
0 0 0 0
0 0 0 0
0 0 0 0
0 0 0 0
4 0 0 0
18 6 0 0
32 26 25 18
83 109 137 125
138 177 185 194
214 271 259 254
251 303 281 250
218 284 259 259
166 239 259 241
67 130 134 131
0 0 0 0
0 0 0 0
0 0 0 0
0 0 0 0
0 0 0 0
0 0 0 0
1 0 0 0
9 0 0 0
16 3 0 0
41 42 43 53
99 129 131 136
156 201 218 241
240 316 293 263
256 310 291 250
217 285 249 252
151 220 244 238
35 96 132 127
0 0 0 0
0 0 0 0
0 0 0 0
0 0 0 0
0 0 0 0
0 0 0 0
3 0 0 0
9 0 0 0
19 5 1 0
47 51 58 74
109 129 139 137
167 208 233 255
247 322 309 280
253 312 300 258
201 263 260 240
130 175 187 186
5 32 52 69
0 0 0 0
0 0 0 0
0 0 0 0
0 0 0 0
0 0 0 0
0 0 0 0
1 0 0 0
9 0 0 0
18 7 0 0
45 51 54 69
101 129 125 135
166 211 232 250
245 314 298 260
250 317 293 259
213 276 252 243
131 208 230 246
0 43 78 117
0 0 0 0
0 0 0 0
0 0 0 0
0 0 0 0
0 0 0 0
0 0 0 0
4 0 0 0
12 0 0 0
22 11 1 0
60 71 84 115
127 136 135 133
178 227 250 251
251 312 296 267
247 304 275 251
197 255 253 251
123 166 160 143
0 1 1 0
0 0 0 0
0 0 0 0
0 0 0 0
0 0 0 0
0 0 0 0
0 0 0 0
1 0 0 0
17 3 0 0
20 14 1 1
51 65 71 95
122 134 143 137
181 225 246 253
255 312 296 269
246 322 300 258
190 260 249 263
128 184 188 194
0 17 29 32
0 0 0 0
0 0 0 0
0 0 0 0
0 0 0 0
0 0 0 0
0 0 0 0
2 0 0 0
16 3 0 0
33 31 27 28
78 101 126 127
135 165 172 170
210 265 258 249
251 303 283 252
225 294 254 252
170 247 247 244
72 134 145 128
0 0 0 0
0 0 0 0
0 0 0 0
0 0 0 0
0 0 0 0
0 0 0 0
0 0 0 0
16 0 0 0
23 15 6 1
50 57 66 86
110 135 137 129
162 200 213 234
249 318 296 263
254 312 293 254
206 267 260 246
129 186 198 205
4 38 55 79
0 0 0 0
0 0 0 0
0 0 0 0
0 0 0 0
0 0 0 0
0 0 0 0
1 0 0 0
15 1 0 0
17 8 1 0
44 47 53 61
104 132 126 135
169 220 246 245
246 328 316 287
254 312 298 258
195 261 255 260
131 171 177 175
1 23 37 43
0 0 0 0
0 0 0 0
0 0 0 0
0 0 0 0
0 0 0 0
0 0 0 0
1 0 0 0
14 0 0 0
25 15 11 4
61 70 88 118
125 141 132 137
182 236 255 239
251 313 301 266
242 298 266 258
187 251 246 241
120 193 203 208
0 16 24 31
0 0 0 0
0 0 0 0
0 0 0 0
0 0 0 0
0 0 0 0
0 0 0 0
8 0 0 0
20 11 1 0
35 36 34 36
86 118 132 125
147 186 200 217
223 287 262 268
254 305 280 248
218 282 256 251
151 214 247 234
41 103 133 136
0 0 0 0
0 0 0 0
0 0 0 0
0 0 0 0
0 0 0 0
0 0 0 0
1 0 0 0
16 1 0 0
25 21 12 7
63 78 104 132
127 163 159 158
189 250 255 259
250 333 314 285
238 327 303 252
190 260 255 231
114 165 161 136
0 1 0 0
0 0 0 0
0 0 0 0
0 0 0 0
0 0 0 0
0 0 0 0
0 0 0 0
6 0 0 0
10 1 0 0
31 25 20 20
75 101 132 133
129 179 187 195
200 260 258 254
251 335 323 290
228 316 287 255
168 248 252 247
70 128 128 133
0 0 0 0
0 0 0 0
0 0 0 0
0 0 0 0
0 0 0 0
0 0 0 0
0 0 0 0
5 0 0 0
10 1 0 0
39 36 37 40
92 124 137 132
143 182 194 202
223 287 261 258
252 308 281 247
218 284 259 257
152 218 243 234
38 102 130 127
0 0 0 0
0 0 0 0
0 0 0 0
0 0 0 0
0 0 0 0
0 0 0 0
5 0 0 0
15 3 0 0
28 21 14 6
62 79 104 132
128 165 161 159
184 249 257 246
251 333 321 286
242 311 289 255
182 253 249 258
119 178 179 173
0 2 0 0
0 0 0 0
0 0 0 0
0 0 0 0
0 0 0 0
0 0 0 0
0 0 0 0
7 0 0 0
15 1 0 0
32 25 22 20
75 101 133 125
133 188 198 216
207 267 264 257
249 331 307 268
229 315 279 249
172 251 255 247
83 140 136 138
0 0 0 0
0 0 0 0
0 0 0 0
0 0 0 0
0 0 0 0
0 0 0 0
0 0 0 0
11 0 0 0
23 9 4 0
39 37 35 37
97 126 127 131
154 195 213 236
232 303 272 270
254 314 290 259
214 285 256 250
150 219 245 249
31 99 135 125
0 0 0 0
0 0 0 0
0 0 0 0
0 0 0 0
0 0 0 0
0 0 0 0
2 0 0 0
12 1 0 0
18 8 1 0
43 46 50 61
111 133 136 131
174 215 246 239
250 303 288 258
249 324 298 253
191 260 254 261
132 190 204 217
1 34 58 86
0 0 0 0
0 0 0 0
0 0 0 0
0 0 0 0
0 0 0 0
0 0 0 0
4 0 0 0
17 3 0 0
27 22 18 15
70 90 117 128
133 157 153 143
199 258 252 253
253 309 284 255
232 311 269 261
182 254 245 249
101 171 158 132
0 0 0 0
0 0 0 0
0 0 0 0
0 0 0 0
0 0 0 0
0 0 0 0
0 0 0 0
8 0 0 0
14 1 0 0
35 24 24 17
78 103 126 127
140 176 188 198
216 272 260 259
250 303 281 253
217 282 255 252
155 225 243 252
59 129 137 128
0 0 0 0
0 0 0 0
0 0 0 0
0 0 0 0
0 0 0 0
0 0 0 0
3 0 0 0
9 0 0 0
19 4 0 0
43 45 52 62
100 131 137 127
160 203 226 246
246 299 276 258
255 313 284 255
212 276 251 249
139 197 218 241
18 62 105 127
0 0 0 0
0 0 0 0
0 0 0 0
0 0 0 0
0 0 0 0
0 0 0 0
4 0 0 0
17 3 0 0
27 26 22 20
66 88 117 123
136 157 162 156
202 254 253 261
252 327 308 272
233 314 283 253
181 250 261 241
90 150 137 123
0 0 0 0
0 0 0 0
0 0 0 0
0 0 0 0
0 0 0 0
0 0 0 0
0 0 0 0
12 0 0 0
20 10 4 0
35 36 35 40
87 117 132 126
148 184 197 209
229 296 266 255
251 312 289 252
212 278 257 246
147 213 243 229
33 92 132 129
0 0 0 0
0 0 0 0
0 0 0 0
0 0 0 0
0 0 0 0
0 0 0 0
2 0 0 0
8 0 0 0
23 9 3 0
50 52 61 76
103 130 127 130
161 204 221 247
246 297 274 271
257 304 274 264
204 2
209 273 258 261 301 260
222 301 265 253
166 247 255 242
70 133 137 128
0 0 0 0
0 0 0 0
0 0 0 0
0 0 0 0
0 0 0 0
0 0 0 0
0 0 0 0
8 0 0 0
15 2 0 0
40 42 43 51
93 127 133 136
145 185 197 201
231 298 261 258
252 329 299 257
213 289 256 262
152 224 249 250
38 103 136 129
0 0 0 0
0 0 0 0
0 0 0 0
0 0 0 0
0 0 0 0
0 0 0 0
2 0 0 0
14 0 0 0
23 8 1 0
53 63 73 92
116 130 130 131
171 217 240 233
255 306 295 263
252 328 310 263
192 261 249 257
127 206 222 242
0 36 59 94
0 0 0 0
0 0 0 0
0 0 0 0
0 0 0 0
0 0 0 0
0 0 0 0
6 0 0 0
16 7 0 0
31 24 21 20
69 87 111 125
139 161 159 156
205 254 254 261
255 301 277 256
235 307 265 251
180 253 243 233
99 165 157 138
0 0 0 0
0 0 0 0
0 0 0 0
0 0 0 0
0 0 0 0
0 0 0 0
0 0 0 0
10 0 0 0
18 9 2 0
32 31 25 29
86 121 130 126
144 192 201 218
215 283 253 257
255 305 280 257
220 285 256 248
163 231 257 239
50 116 132 132
0 0 0 0
0 0 0 0
0 0 0 0
0 0 0 0
0 0 0 0
0 0 0 0
3 0 0 0
9 0 0 0
22 12 4 0
50 58 71 95
114 127 138 136
172 218 238 258
249 319 304 265
252 333 319 265
198 269 262 239
132 184 200 202
1 31 50 67
0 0 0 0
0 0 0 0
0 0 0 0
0 0 0 0
0 0 0 0
0 0 0 0
1 0 0 0
9 1 0 0
15 4 0 0
42 49 53 72
109 130 131 131
169 216 239 233
254 302 288 262
254 304 279 259
200 262 247 254
133 185 196 200
2 32 47 65
0 0 0 0
0 0 0 0
0 0 0 0
0 0 0 0
0 0 0 0
0 0 0 0
1 0 0 0
13 0 0 0
22 17 7 2
53 60 74 94
119 133 136 134
176 228 247 251
251 313 295 265
246 327 305 268
189 263 254 247
130 190 204 216
0 25 43 61
0 0 0 0
0 0 0 0
0 0 0 0
0 0 0 0
0 0 0 0
0 0 0 0
5 0 0 0
10 1 0 0
30 27 21 21
71 91 116 129
132 156 153 136
207 254 254 253
253 301 273 263
228 298 260 257
173 250 254 247
89 149 142 131
0 0 0 0
0 0 0 0
0 0 0 0
0 0 0 0
0 0 0 0
0 0 0 0
0 0 0 0
12 0 0 0
21 9 1 0
41 44 44 54
93 130 127 129
147 186 200 203
227 291 257 264
253 304 277 259
214 281 258 254
152 215 249 241
38 101 127 128
0 0 0 0
0 0 0 0
0 0 0 0
0 0 0 0
0 0 0 0
0 0 0 0
3 0 0 0
16 3 0 0
24 19 12 4
54 67 85 113
123 129 144 134
183 230 251 240
254 313 301 264
249 307 279 249
195 258 255 253
123 167 162 144
0 4 0 0
0 0 0 0
0 0 0 0
0 0 0 0
0 0 0 0
0 0 0 0
0 0 0 0
5 0 0 0
14 0 0 0
22 11 3 0
60 71 85 117
127 136 135 134
179 227 250 246
252 330 313 277
241 307 281 254
188 253 251 252
118 185 184 175
0 9 7 1
0 0 0 0
0 0 0 0
0 0 0 0
0 0 0 0
0 0 0 0
0 0 0 0
1 0 0 0
13 0 0 0
21 11 2 0
53 61 71 93
117 135 133 132
177 227 250 252
251 309 295 266
248 302 273 260
200 257 241 248
128 195 201 205
0 19 30 36
0 0 0 0
0 0 0 0
0 0 0 0
0 0 0 0
0 0 0 0
0 0 0 0
7 0 0 0
12 1 0 0
30 24 22 23
75 104 131 129
134 168 179 187
207 259 260 249
251 317 296 261
221 296 259 245
166 245 248 241
72 132 149 132
0 0 0 0
0 0 0 0
0 0 0 0
0 0 0 0
0 0 0 0
0 0 0 0
0 0 0 0
10 0 0 0
14 4 0 0
42 46 47 60
100 130 140 131
161 202 227 248
248 299 279 257
253 306 279 259
205 259 255 252
135 185 208 223
14 53 87 128
0 0 0 0
0 0 0 0
0 0 0 0
0 0 0 0
0 0 0 0
0 0 0 0
1 0 0 0
12 3 0 0
25 20 12 5
58 70 92 116
129 140 132 137
193 243 246 245
253 311 294 256
248 303 273 254
192 256 257 246
122 185 185 181
0 4 3 0
0 0 0 0
0 0 0 0
0 0 0 0
0 0 0 0
0 0 0 0
0 0 0 0
2 0 0 0
13 2 0 0
27 23 21 15
68 86 115 123
134 157 160 155
201 258 254 256
254 309 286 259
238 316 277 255
181 260 246 249
95 161 144 126
0 0 0 0
0 0 0 0
0 0 0 0
0 0 0 0
0 0 0 0
0 0 0 0
0 0 0 0
2 0 0 0
16 4 0 0
27 24 14 11
75 100 127 123
132 186 194 201
212 277 257 255
249 325 304 265
225 303 269 256
160 238 257 240
59 134 139 126
0 0 0 0
0 0 0 0
0 0 0 0
0 0 0 0
0 0 0 0
0 0 0 0
0 0 0 0
9 0 0 0
22 11 1 0
49 54 63 81
109 134 127 131
167 217 240 236
245 319 303 270
249 333 319 280
203 279 251 254
134 194 205 212
13 56 89 127
0 0 0 0
0 0 0 0
0 0 0 0
0 0 0 0
0 0 0 0
0 0 0 0
1 0 0 0
16 4 0 0
25 14 9 1
54 68 80 105
123 132 141 134
186 234 257 246
255 315 305 272
247 303 277 250
195 256 251 250
122 182 178 166
0 11 9 1
0 0 0 0
0 0 0 0
0 0 0 0
0 0 0 0
0 0 0 0
0 0 0 0
1 0 0 0
16 3 0 0
29 29 24 23
74 96 126 120
130 160 160 148
203 254 261 259
253 307 289 260
234 306 267 253
177 250 262 249
81 144 128 129
0 0 0 0
0 0 0 0
0 0 0 0
0 0 0 0
0 0 0 0
0 0 0 0
0 0 0 0
7 0 0 0
11 1 0 0
32 25 16 13
81 105 127 124
137 171 177 184
214 267 262 254
253 300 279 257
218 280 258 248
160 228 251 228
57 124 146 130
0 0 0 0
0 0 0 0
0 0 0 0
0 0 0 0
0 0 0 0
0 0 0 0
1 0 0 0
12 0 0 0
20 7 0 0
49 53 60 79
110 133 134 134
166 203 221 243
247 314 293 260
247 331 309 263
193 266 262 238
134 187 205 216
7 41 66 99
0 0 0 0
0 0 0 0
0 0 0 0
0 0 0 0
0 0 0 0
0 0 0 0
2 0 0 0
8 0 0 0
18 7 0 0
49 50 57 73
108 131 138 133
167 208 232 251
251 323 310 276
252 315 300 259
200 263 262 241
133 186 203 213
9 43 67 104
0 0 0 0
0 0 0 0
0 0 0 0
0 0 0 0
0 0 0 0
0 0 0 0
1 0 0 0
16 2 0 0
26 21 15 11
70 90 120 131
135 157 164 159
199 254 255 246
255 309 288 259
231 311 270 254
181 254 245 247
105 175 168 148
0 0 0 0
0 0 0 0
0 0 0 0
0 0 0 0
0 0 0 0
0 0 0 0
0 0 0 0
2 0 0 0
20 5 0 0
36 34 34 38
84 119 126 130
141 177 187 194
216 270 262 256
253 297 265 263
216 279 255 249
155 223 250 252
56 125 146 130
0 0 0 0
0 0 0 0
0 0 0 0
0 0 0 0
0 0 0 0
0 0 0 0
2 0 0 0
8 0 0 0
23 12 4 0
49 55 64 86
105 129 126 132
168 215 237 226
251 326 315 279
254 319 305 264
202 270 260 241
135 192 208 217
7 41 65 97
0 0 0 0
0 0 0 0
0 0 0 0
0 0 0 0
0 0 0 0
0 0 0 0
5 0 0 0
16 2 0 0
25 19 11 5
55 67 85 113
121 130 137 134
181 236 258 242
254 316 304 265
244 303 270 252
194 257 255 245
128 176 182 173
0 10 12 4
0 0 0 0
0 0 0 0
0 0 0 0
0 0 0 0
0 0 0 0
0 0 0 0
2 0 0 0
17 5 0 0
30 24 17 11
74 97 124 115
130 161 159 146
210 258 250 257
254 310 288 253
228 299 262 247
168 246 253 230
83 140 131 131
0 0 0 0
0 0 0 0
0 0 0 0
0 0 0 0
0 0 0 0
0 0 0 0
0 0 0 0
8 0 0 0
20 9 1 0
38 39 38 42
89 122 133 125
148 185 197 210
220 280 253 260
250 306 277 257
217 287 249 255
156 229 246 249
43 113 132 133
0 0 0 0
0 0 0 0
0 0 0 0
0 0 0 0
0 0 0 0
0 0 0 0
1 0 0 0
8 0 0 0
21 10 1 0
42 45 46 56
107 133 127 137
169 218 240 236
247 321 308 266
247 331 314 270
195 270 255 248
126 202 215 224
3 48 83 119
0 0 0 0
0 0 0 0
0 0 0 0
0 0 0 0
0 0 0 0
0 0 0 0
1 0 0 0
15 1 0 0
30 23 20 16
74 96 126 121
134 164 165 158
203 257 257 255
252 309 288 258
230 303 268 250
177 253 247 249
97 164 152 133
0 0 0 0
0 0 0 0
0 0 0 0
0 0 0 0
0 0 0 0
0 0 0 0
0 0 0 0
4 0 0 0
15 1 0 0
27 22 17 9
75 97 124 119
132 164 165 157
203 256 255 262
251 307 283 260
226 296 258 246
169 249 242 242
86 155 135 129
0 0 0 0
0 0 0 0
0 0 0 0
0 0 0 0
0 0 0 0
0 0 0 0
0 0 0 0
11 0 0 0
15 3 0 0
40 38 39 46
93 127 129 127
145 186 191 199
223 288 259 260
254 305 279 255
217 287 256 251
156 226 250 226
36 103 136 129
0 0 0 0
0 0 0 0
0 0 0 0
0 0 0 0
0 0 0 0
0 0 0 0
0 0 0 0
9 0 0 0
22 11 3 0
46 51 58 69
111 138 132 130
174 219 242 248
250 331 314 282
246 332 317 269
193 267 261 247
128 185 192 201
3 32 52 74
0 0 0 0
0 0 0 0
0 0 0 0
0 0 0 0
0 0 0 0
0 0 0 0
5 0 0 0
14 4 0 0
27 22 17 10
72 91 123 129
132 155 165 159
197 255 249 260
251 315 294 263
235 315 282 253
173 254 262 249
101 173 163 146
0 0 0 0
0 0 0 0
0 0 0 0
0 0 0 0
0 0 0 0
0 0 0 0
0 0 0 0
7 0 0 0
22 10 0 0
34 35 32 35
91 121 129 131
141 178 185 188
219 279 258 254
251 323 295 259
212 288 254 259
153 228 252 254
39 108 128 133
0 0 0 0
0 0 0 0
0 0 0 0
0 0 0 0
0 0 0 0
0 0 0 0
1 0 0 0
11 0 0 0
19 8 0 0
51 58 69 88
114 128 139 127
170 212 229 250
249 321 304 271
250 332 316 269
194 262 254 256
128 197 209 220
0 37 53 82
0 0 0 0
0 0 0 0
0 0 0 0
0 0 0 0
0 0 0 0
0 0 0 0
5 0 0 0
11 0 0 0
24 12 3 0
53 61 71 94
119 142 134 136
169 221 246 245
254 309 301 266
248 307 283 254
199 258 252 259
128 195 206 211
0 27 43 59
0 0 0 0
0 0 0 0
0 0 0 0
0 0 0 0
0 0 0 0
0 0 0 0
6 0 0 0
11 1 0 0
27 27 21 21
70 92 116 133
129 157 154 143
207 255 258 257
254 300 274 268
228 294 262 255
168 245 245 238
84 150 138 129
0 0 0 0
0 0 0 0
0 0 0 0
0 0 0 0
0 0 0 0
0 0 0 0
0 0 0 0
3 0 0 0
21 8 1 0
38 38 36 42
90 122 131 124
142 176 184 188
219 279 257 249
250 326 294 258
214 290 257 256
153 225 247 248
46 119 135 126
0 0 0 0
0 0 0 0
0 0 0 0
0 0 0 0
0 0 0 0
0 0 0 0
1 0 0 0
16 1 0 0
19 9 1 0
48 49 55 64
109 134 134 133
163 204 223 246
246 313 294 264
249 328 309 267
194 261 261 255
135 185 197 200
4 33 55 77
0 0 0 0
0 0 0 0
0 0 0 0
0 0 0 0
0 0 0 0
0 0 0 0
1 0 0 0
14 2 0 0
20 8 1 0
50 52 59 71
117 133 128 136
172 213 233 257
251 326 310 273
250 331 315 263
188 262 256 237
127 207 226 246
0 41 74 118
0 0 0 0
0 0 0 0
0 0 0 0
0 0 0 0
0 0 0 0
0 0 0 0
2 0 0 0
17 3 0 0
33 31 27 29
71 98 127 126
131 162 159 154
207 257 257 247
252 307 288 255
232 305 266 252
167 249 244 235
79 146 128 129
0 0 0 0
0 0 0 0
0 0 0 0
0 0 0 0
0 0 0 0
0 0 0 0
0 0 0 0
7 0 0 0
16 1 0 0
37 33 32 34
84 114 115 135
144 185 194 206
217 279 261 259
249 326 298 262
213 289 257 261
157 232 252 230
50 122 140 127
0 0 0 0
0 0 0 0
0 0 0 0
0 0 0 0
0 0 0 0
0 0 0 0
1 0 0 0
12 1 0 0
24 14 5 0
50 55 66 80
114 131 136 126
177 220 248 245
253 302 287 259
250 309 279 258
207 264 254 259
131 178 184 190
0 18 27 27
0 0 0 0
0 0 0 0
0 0 0 0
0 0 0 0
0 0 0 0
0 0 0 0
5 0 0 0
16 4 0 0
24 15 7 1
60 76 96 129
127 141 133 134
182 231 249 254
254 314 301 265
246 305 276 246
195 255 255 241
125 168 173 158
0 1 0 0
0 0 0 0
0 0 0 0
0 0 0 0
0 0 0 0
0 0 0 0
0 0 0 0
3 0 0 0
11 0 0 0
22 11 1 0
60 72 85 121
124 130 143 132
184 235 257 241
251 314 301 267
242 297 269 259
184 257 248 247
124 177 186 183
0 8 12 5
0 0 0 0
0 0 0 0
0 0 0 0
0 0 0 0
0 0 0 0
0 0 0 0
2 0 0 0
16 2 0 0
31 29 26 24
76 101 129 128
132 186 200 211
204 266 265 250
254 303 287 253
227 297 264 254
172 250 247 246
79 142 138 130
0 0 0 0
0 0 0 0
0 0 0 0
0 0 0 0
0 0 0 0
0 0 0 0
0 0 0 0
10 0 0 0
16 7 0 0
40 40 43 53
92 125 123 124
147 185 195 203
234 302 267 259
253 309 274 267
207 273 257 249
141 201 221 242
29 83 1128
151 198 215 237
230 300 266 261
251 331 303 267
210 288 250 257
145 219 243 233
30 98 131 127
0 0 0 0
0 0 0 0
0 0 0 0
0 0 0 0
0 0 0 0
0 0 0 0
1 0 0 0
10 1 0 0
21 14 4 1
55 65 78 103
117 137 137 133
169 220 246 246
253 311 299 268
247 302 277 252
192 255 258 255
128 180 182 182
0 10 11 2
0 0 0 0
0 0 0 0
0 0 0 0
0 0 0 0
0 0 0 0
0 0 0 0
4 0 0 0
10 1 0 0
31 23 19 16
74 97 127 122
135 163 167 160
204 259 253 248
255 303 279 259
229 302 264 250
177 252 253 247
91 157 141 127
0 0 0 0
0 0 0 0
0 0 0 0
0 0 0 0
0 0 0 0
0 0 0 0
0 0 0 0
14 0 0 0
21 11 5 0
43 49 53 66
94 129 125 133
146 187 192 202
228 295 258 252
252 312 286 254
217 288 252 256
148 214 233 255
34 98 132 132
0 0 0 0
0 0 0 0
0 0 0 0
0 0 0 0
0 0 0 0
0 0 0 0
0 0 0 0
11 0 0 0
21 8 1 0
51 57 65 86
106 128 130 128
165 203 222 248
245 314 293 264
247 327 309 266
196 268 264 246
132 183 197 201
0 28 43 58
0 0 0 0
0 0 0 0
0 0 0 0
0 0 0 0
0 0 0 0
0 0 0 0
3 0 0 0
12 0 0 0
18 8 0 0
52 60 71 94
112 131 135 141
177 224 245 246
252 310 290 259
249 311 283 260
206 263 254 260
133 172 175 170
0 21 29 34
0 0 0 0
0 0 0 0
0 0 0 0
0 0 0 0
0 0 0 0
0 0 0 0
2 0 0 0
13 3 0 0
26 23 21 16
68 85 115 123
132 157 160 153
195 254 245 257
252 331 312 275
230 314 282 247
175 250 259 248
94 153 149 138
0 0 0 0
0 0 0 0
0 0 0 0
0 0 0 0
0 0 0 0
0 0 0 0
0 0 0 0
7 0 0 0
21 8 1 0
38 35 35 41
83 110 134 125
142 183 192 203
215 270 262 250
250 321 290 257
215 292 260 253
160 245 241 236
55 125 134 133
0 0 0 0
0 0 0 0
0 0 0 0
0 0 0 0
0 0 0 0
0 0 0 0
0 0 0 0
8 0 0 0
21 11 2 0
40 42 47 52
102 134 126 136
165 210 234 250
248 309 289 259
253 313 287 255
201 260 255 253
134 192 204 217
10 44 69 103
0 0 0 0
0 0 0 0
0 0 0 0
0 0 0 0
0 0 0 0
0 0 0 0
4 0 0 0
15 4 0 0
24 14 6 1
63 75 92 119
125 135 153 133
174 229 252 254
257 310 299 266
246 302 274 250
194 256 256 246
126 168 174 160
0 1 0 0
0 0 0 0
0 0 0 0
0 0 0 0
0 0 0 0
0 0 0 0
0 0 0 0
5 0 0 0
11 0 0 0
19 14 1 0
59 72 86 118
124 130 143 131
186 234 257 240
253 307 290 256
246 296 265 250
190 258 242 248
125 180 179 166
0 7 8 0
0 0 0 0
0 0 0 0
0 0 0 0
0 0 0 0
0 0 0 0
0 0 0 0
2 0 0 0
17 4 0 0
22 13 3 0
59 74 88 117
129 136 136 136
187 237 262 248
254 333 326 293
244 308 288 257
191 256 253 252
125 173 171 160
0 1 0 0
0 0 0 0
0 0 0 0
0 0 0 0
0 0 0 0
0 0 0 0
0 0 0 0
5 0 0 0
11 0 0 0
20 11 0 0
53 63 70 93
123 134 142 137
178 221 246 246
252 307 297 263
245 320 295 253
191 261 248 260
129 184 191 194
0 19 28 34
0 0 0 0
0 0 0 0
0 0 0 0
0 0 0 0
0 0 0 0
0 0 0 0
1 0 0 0
17 5 0 0
33 30 29 29
75 100 125 127
136 163 171 167
212 263 253 253
250 317 295 258
219 294 259 249
167 245 249 241
71 131 143 132
0 0 0 0
0 0 0 0
0 0 0 0
0 0 0 0
0 0 0 0
0 0 0 0
1 0 0 0
7 0 0 0
21 10 2 0
43 47 53 66
95 125 133 128
152 190 204 217
233 303 270 260
253 313 288 253
206 268 255 261
140 197 216 242
22 70 113 131
0 0 0 0
0 0 0 0
0 0 0 0
0 0 0 0
0 0 0 0
0 0 0 0
2 0 0 0
11 3 0 0
23 20 13 7
57 70 89 115
130 142 135 138
191 249 248 252
256 318 308 269
247 305 279 249
193 257 257 248
121 178 186 171
0 6 5 0
0 0 0 0
0 0 0 0
0 0 0 0
0 0 0 0
0 0 0 0
0 0 0 0
1 0 0 0
14 5 0 0
20 17 8 1
59 76 96 130
128 143 135 141
190 247 249 245
256 309 297 262
243 296 262 262
191 255 245 249
120 193 191 187
0 14 16 12
0 0 0 0
0 0 0 0
0 0 0 0
0 0 0 0
0 0 0 0
0 0 0 0
7 0 0 0
21 9 1 0
41 41 45 52
91 124 138 132
142 179 188 193
225 290 254 259
251 307 279 248
216 286 256 255
156 229 253 232
46 119 129 127
0 0 0 0
0 0 0 0
0 0 0 0
0 0 0 0
0 0 0 0
0 0 0 0
1 0 0 0
12 1 0 0
23 16 7 1
53 61 73 91
120 133 133 133
179 230 254 231
251 331 317 285
246 328 312 265
190 263 258 243
131 182 200 205
0 21 35 44
0 0 0 0
0 0 0 0
0 0 0 0
0 0 0 0
0 0 0 0
0 0 0 0
4 0 0 0
12 0 0 0
26 14 7 0
56 68 82 106
127 138 135 137
185 234 251 238
251 314 298 261
242 294 262 260
186 255 242 249
120 191 201 204
0 8 12 10
0 0 0 0
0 0 0 0
0 0 0 0
0 0 0 0
0 0 0 0
0 0 0 0
7 0 0 0
17 10 1 0
42 41 46 52
88 125 126 130
146 187 200 213
220 283 257 256
251 325 299 260
215 290 261 256
159 237 254 237
46 118 133 132
0 0 0 0
0 0 0 0
0 0 0 0
0 0 0 0
0 0 0 0
0 0 0 0
4 0 0 0
17 2 0 0
25 19 14 9
53 67 82 115
124 132 150 140
178 213 247 251
252 304 288 261
248 304 274 250
199 257 249 246
126 171 173 158
0 9 10 1
0 0 0 0
0 0 0 0
0 0 0 0
0 0 0 0
0 0 0 0
0 0 0 0
4 0 0 0
10 0 0 0
27 22 17 15
72 92 118 134
131 159 156 147
195 256 245 256
251 332 310 279
235 324 296 252
175 256 249 255
93 161 150 130
0 0 0 0
0 0 0 0
0 0 0 0
0 0 0 0
0 0 0 0
0 0 0 0
0 0 0 0
7 0 0 0
15 1 0 0
35 30 30 34
77 103 124 129
140 175 179 186
217 273 256 250
251 303 283 249
219 281 258 257
160 235 253 239
64 130 144 130
0 0 0 0
0 0 0 0
0 0 0 0
0 0 0 0
0 0 0 0
0 0 0 0
0 0 0 0
15 0 0 0
21 12 3 0
46 46 58 64
106 132 127 133
171 219 242 238
247 320 308 271
253 315 298 256
202 263 260 258
134 186 200 202
6 38 62 88
0 0 0 0
0 0 0 0
0 0 0 0
0 0 0 0
0 0 0 0
0 0 0 0
3 0 0 0
9 0 0 0
19 8 0 0
41 43 42 50
109 134 128 133
168 215 236 260
253 328 316 287
255 316 304 263
200 264 260 242
135 183 197 204
6 38 61 87
0 0 0 0
0 0 0 0
0 0 0 0
0 0 0 0
0 0 0 0
0 0 0 0
3 0 0 0
9 0 0 0
19 7 0 0
49 53 60 79
110 134 134 137
174 213 236 253
254 301 283 256
253 306 274 253
199 263 254 241
133 187 197 198
2 35 53 72
0 0 0 0
0 0 0 0
0 0 0 0
0 0 0 0
0 0 0 0
0 0 0 0
0 0 0 0
10 0 0 0
22 14 5 1
51 58 72 90
119 132 133 131
183 233 252 232
254 316 303 266
253 305 283 254
194 255 259 255
125 175 184 171
0 13 18 9
0 0 0 0
0 0 0 0
0 0 0 0
0 0 0 0
0 0 0 0
0 0 0 0
3 0 0 0
15 6 0 0
22 13 7 1
59 76 95 121
125 133 152 136
186 235 259 244
254 315 304 264
247 309 280 249
195 257 255 253
125 168 162 148
0 4 0 0
0 0 0 0
0 0 0 0
0 0 0 0
0 0 0 0
0 0 0 0
0 0 0 0
3 0 0 0
14 0 0 0
28 23 17 14
74 91 118 129
137 159 156 146
198 255 245 248
252 332 313 274
231 314 285 252
182 252 255 242
98 159 153 133
0 0 0 0
0 0 0 0
0 0 0 0
0 0 0 0
0 0 0 0
0 0 0 0
0 0 0 0
3 0 0 0
17 6 0 0
28 24 17 13
77 100 122 116
131 185 189 193
212 274 254 251
250 331 306 260
225 308 267 255
166 249 254 242
66 131 131 129
0 0 0 0
0 0 0 0
0 0 0 0
0 0 0 0
0 0 0 0
0 0 0 0
0 0 0 0
8 0 0 0
15 3 0 0
39 38 41 50
96 129 127 129
150 195 211 230
227 297 262 257
251 328 298 259
217 294 257 242
152 229 252 246
33 100 129 130
0 0 0 0
0 0 0 0
0 0 0 0
0 0 0 0
0 0 0 0
0 0 0 0
4 0 0 0
17 4 0 0
27 21 18 15
71 90 122 131
137 158 165 161
199 255 255 248
255 310 292 265
235 312 279 252
186 252 254 252
104 168 155 134
0 0 0 0
0 0 0 0
0 0 0 0
0 0 0 0
0 0 0 0
0 0 0 0
0 0 0 0
9 0 0 0
23 10 2 0
39 36 34 33
86 117 130 132
145 183 193 205
225 290 257 251
252 308 282 248
214 281 258 246
158 229 251 227
48 119 127 131
0 0 0 0
0 0 0 0
0 0 0 0
0 0 0 0
0 0 0 0
0 0 0 0
2 0 0 0
17 2 0 0
17 8 1 0
46 50 53 64
105 127 133 128
173 210 236 251
247 318 302 263
253 338 324 278
196 266 260 243
135 186 203 216
1 28 51 68
0 0 0 0
0 0 0 0
0 0 0 0
0 0 0 0
0 0 0 0
0 0 0 0
1 0 0 0
14 2 0 0
27 20 15 8
57 72 89 118
131 142 134 135
191 245 247 247
251 311 296 264
242 295 262 250
185 254 241 238
119 192 197 199
0 14 21 22
0 0 0 0
0 0 0 0
0 0 0 0
0 0 0 0
0 0 0 0
0 0 0 0
8 0 0 0
21 8 2 0
40 39 39 46
86 114 129 132
147 182 194 205
226 289 263 252
252 307 283 253
216 283 255 248
153 221 245 238
42 111 136 134
0 0 0 0
0 0 0 0
0 0 0 0
0 0 0 0
0 0 0 0
0 0 0 0
0 0 0 0
11 0 0 0
23 14 5 0
49 53 62 81
113 129 133 133
176 222 247 247
252 326 317 283
247 331 316 266
193 268 264 248
126 181 191 194
2 28 45 58
0 0 0 0
0 0 0 0
0 0 0 0
0 0 0 0
0 0 0 0
0 0 0 0
5 0 0 0
8 0 0 0
25 16 9 4
59 72 86 121
124 128 142 138
179 223 250 254
252 330 315 282
244 311 285 257
188 255 254 246
128 176 186 186
0 7 7 3
0 0 0 0
0 0 0 0
0 0 0 0
0 0 0 0
0 0 0 0
0 0 0 0
4 0 0 0
11 0 0 0
20 8 1 0
47 51 54 69
109 137 134 137
170 210 229 251
251 322 307 265
250 336 320 274
195 271 266 241
125 195 212 213
0 35 62 89
0 0 0 0
0 0 0 0
0 0 0 0
0 0 0 0
0 0 0 0
0 0 0 0
1 0 0 0
14 1 0 0
25 22 13 13
73 92 119 131
132 157 156 149
200 255 252 256
251 314 296 266
236 315 283 253
178 254 247 241
101 171 167 149
0 0 0 0
0 0 0 0
0 0 0 0
0 0 0 0
0 0 0 0
0 0 0 0
0 0 0 0
7 0 0 0
19 9 1 0
33 31 27 31
89 118 128 132
147 190 202 219
215 280 253 253
254 306 278 257
219 289 249 260
157 232 255 239
51 125 140 132
0 0 0 0
0 0 0 0
0 0 0 0
0 0 0 0
0 0 0 0
0 0 0 0
3 0 0 0
6 0 0 0
19 11 1 0
43 45 50 55
109 132 131 127
172 216 240 238
250 328 314 282
254 318 303 261
196 258 254 251
132 177 180 182
4 32 47 63
0 0 0 0
0 0 0 0
0 0 0 0
0 0 0 0
0 0 0 0
0 0 0 0
1 0 0 0
13 1 0 0
24 18 12 5
58 68 83 116
127 137 153 143
185 236 262 245
253 311 294 254
242 296 261 258
191 251 254 238
120 179 184 171
0 11 12 3
0 0 0 0
0 0 0 0
0 0 0 0
0 0 0 0
0 0 0 0
0 0 0 0
4 0 0 0
10 1 0 0
32 28 25 26
78 105 131 127
138 174 186 190
213 268 265 253
254 327 315 276
219 297 266 254
160 242 254 242
58 127 148 132
0 0 0 0
0 0 0 0
0 0 0 0
0 0 0 0
0 0 0 0
0 0 0 0
0 0 0 0
13 1 0 0
22 11 3 0
42 45 50 58
105 131 132 134
162 206 229 252
248 300 281 250
256 310 288 255
202 259 256 249
136 185 206 213
6 36 62 86
0 0 0 0
0 0 0 0
0 0 0 0
0  0
0 0 0 0
7 0 0 0
12 1 0 0
31 20 16 7
74 97 120 121
130 162 164 161
207 255 260 249
252 307 289 258
231 302 265 255
171 245 258 243
87 150 141 130
0 0 0 0
0 0 0 0
0 0 0 0
0 0 0 0
0 0 0 0
0 0 0 0
0 0 0 0
5 0 0 0
16 8 0 0
34 36 35 37
84 119 128 127
138 176 184 189
215 273 258 251
249 321 301 263
218 300 261 254
159 241 256 246
47 125 130 133
0 0 0 0
0 0 0 0
0 0 0 0
0 0 0 0
0 0 0 0
0 0 0 0
4 0 0 0
13 0 0 0
20 7 0 0
49 56 64 78
107 126 130 133
162 200 218 245
248 298 272 271
256 311 281 255
206 263 253 252
130 180 186 187
7 38 57 75
0 0 0 0
0 0 0 0
0 0 0 0
0 0 0 0
0 0 0 0
0 0 0 0
2 0 0 0
14 3 1 0
25 20 12 9
62 75 100 127
128 142 132 149
187 244 235 261
253 318 303 269
241 296 262 256
184 254 258 252
120 178 176 164
0 4 3 0
0 0 0 0
0 0 0 0
0 0 0 0
0 0 0 0
0 0 0 0
0 0 0 0
6 0 0 0
18 5 0 0
32 31 30 30
70 96 123 123
134 165 168 163
200 255 250 259
251 310 284 253
228 301 262 252
174 250 252 247
86 154 134 137
0 0 0 0
0 0 0 0
0 0 0 0
0 0 0 0
0 0 0 0
0 0 0 0
0 0 0 0
7 0 0 0
14 1 0 0
32 25 18 10
83 114 128 118
137 172 173 173
211 267 255 258
249 316 293 259
223 298 264 254
160 242 256 246
53 121 132 130
0 0 0 0
0 0 0 0
0 0 0 0
0 0 0 0
0 0 0 0
0 0 0 0
1 0 0 0
9 0 0 0
21 11 3 0
43 43 50 57
104 134 128 136
160 206 218 247
246 320 299 268
252 313 293 254
196 260 248 256
132 194 208 226
3 42 65 102
0 0 0 0
0 0 0 0
0 0 0 0
0 0 0 0
0 0 0 0
0 0 0 0
6 0 0 0
11 1 0 0
20 11 2 0
59 69 86 118
124 129 140 130
184 231 249 238
256 315 300 265
249 310 281 251
196 255 256 256
130 176 179 176
0 10 12 3
0 0 0 0
0 0 0 0
0 0 0 0
0 0 0 0
0 0 0 0
0 0 0 0
8 0 0 0
13 1 0 0
31 20 16 7
72 96 119 129
131 162 160 152
197 255 251 249
250 306 288 260
230 308 271 256
170 244 249 259
90 155 142 131
0 0 0 0
0 0 0 0
0 0 0 0
0 0 0 0
0 0 0 0
0 0 0 0
0 0 0 0
6 0 0 0
18 6 0 0
32 27 24 20
83 113 117 130
139 181 187 194
215 276 263 255
250 303 282 253
217 282 257 256
159 226 249 247
61 130 133 127
0 0 0 0
0 0 0 0
0 0 0 0
0 0 0 0
0 0 0 0
0 0 0 0
0 0 0 0
9 0 0 0
22 11 4 0
48 56 64 81
103 132 128 132
167 214 236 252
249 325 315 281
254 318 305 267
203 271 265 246
130 186 201 204
3 38 61 85
0 0 0 0
0 0 0 0
0 0 0 0
0 0 0 0
0 0 0 0
0 0 0 0
1 0 0 0
13 1 0 0
23 17 11 4
54 66 80 110
127 134 148 134
179 220 244 246
254 310 289 256
248 308 276 251
196 255 252 253
125 168 164 148
0 7 2 0
0 0 0 0
0 0 0 0
0 0 0 0
0 0 0 0
0 0 0 0
0 0 0 0
5 0 0 0
13 4 0 0
26 17 14 5
66 79 103 128
127 164 160 158
190 250 254 258
251 314 294 267
242 297 263 258
181 250 255 248
116 168 160 142
0 0 0 0
0 0 0 0
0 0 0 0
0 0 0 0
0 0 0 0
0 0 0 0
0 0 0 0
2 0 0 0
11 4 0 0
31 26 22 21
73 94 123 115
133 159 160 144
205 254 253 251
253 327 302 263
228 309 271 250
179 253 246 241
84 146 133 133
0 0 0 0
0 0 0 0
0 0 0 0
0 0 0 0
0 0 0 0
0 0 0 0
0 0 0 0
12 0 0 0
16 2 0 0
42 39 42 50
94 129 134 135
151 195 211 231
228 295 261 263
252 312 280 248
216 283 259 243
150 213 246 230
34 98 129 126
0 0 0 0
0 0 0 0
0 0 0 0
0 0 0 0
0 0 0 0
0 0 0 0
1 0 0 0
9 0 0 0
16 5 0 0
45 48 51 65
106 131 131 133
166 210 237 228
247 320 307 269
254 315 299 257
203 268 259 247
134 188 204 216
17 53 90 132
0 0 0 0
0 0 0 0
0 0 0 0
0 0 0 0
0 0 0 0
0 0 0 0
1 0 0 0
16 4 0 0
24 14 6 1
61 75 88 122
126 133 149 133
188 237 257 253
256 312 289 259
243 296 267 257
190 253 250 254
126 177 181 178
0 5 9 1
0 0 0 0
0 0 0 0
0 0 0 0
0 0 0 0
0 0 0 0
0 0 0 0
4 0 0 0
11 0 0 0
25 20 13 9
60 75 91 123
129 145 134 155
194 248 252 248
253 307 287 262
242 295 260 249
188 254 254 240
119 165 164 142
0 0 0 0
0 0 0 0
0 0 0 0
0 0 0 0
0 0 0 0
0 0 0 0
0 0 0 0
4 0 0 0
9 0 0 0
22 11 5 0
56 63 78 97
120 145 138 135
176 232 250 239
250 314 299 265
247 324 301 260
186 258 254 233
119 192 197 194
0 24 35 42
0 0 0 0
0 0 0 0
0 0 0 0
0 0 0 0
0 0 0 0
0 0 0 0
4 0 0 0
18 6 0 0
27 24 14 9
74 99 125 119
134 165 168 161
201 253 254 260
251 305 284 258
230 299 265 252
170 248 243 251
87 161 144 128
0 0 0 0
0 0 0 0
0 0 0 0
0 0 0 0
0 0 0 0
0 0 0 0
0 0 0 0
7 0 0 0
14 1 0 0
33 27 25 19
84 114 131 124
137 176 179 179
217 276 256 256
255 303 273 253
221 289 252 260
160 229 252 248
52 124 139 124
0 0 0 0
0 0 0 0
0 0 0 0
0 0 0 0
0 0 0 0
0 0 0 0
4 0 0 0
15 1 0 0
22 13 7 2
47 53 59 77
115 131 137 141
177 219 247 242
249 327 313 283
253 340 331 295
195 267 264 243
127 198 213 222
0 36 58 85
0 0 0 0
0 0 0 0
0 0 0 0
0 0 0 0
0 0 0 0
0 0 0 0
4 0 0 0
17 3 0 0
27 21 17 14
70 91 116 127
134 157 153 143
192 256 244 240
251 313 298 261
232 311 271 260
179 258 246 249
103 177 168 150
0 0 0 0
0 0 0 0
0 0 0 0
0 0 0 0
0 0 0 0
0 0 0 0
0 0 0 0
9 0 0 0
21 9 2 0
33 33 31 27
86 118 127 129
141 180 188 193
219 283 253 256
252 306 281 258
219 284 258 255
155 228 249 249
52 122 136 124
0 0 0 0
0 0 0 0
0 0 0 0
0 0 0 0
0 0 0 0
0 0 0 0
2 0 0 0
9 0 0 0
23 11 3 0
43 43 47 54
101 131 132 133
166 211 232 248
249 305 285 256
253 306 278 254
201 257 255 257
130 178 179 178
7 33 45 55
0 0 0 0
0 0 0 0
0 0 0 0
0 0 0 0
0 0 0 0
0 0 0 0
3 0 0 0
17 2 0 0
22 10 2 0
54 64 79 104
115 140 132 132
174 227 252 254
252 312 299 264
247 305 275 257
199 260 245 253
126 179 178 170
0 16 24 20
0 0 0 0
0 0 0 0
0 0 0 0
0 0 0 0
0 0 0 0
0 0 0 0
1 0 0 0
15 3 0 0
34 30 27 29
77 106 132 128
129 185 195 198
205 263 262 248
253 302 284 255
220 288 254 260
162 232 256 237
71 134 131 137
0 0 0 0
0 0 0 0
0 0 0 0
0 0 0 0
0 0 0 0
0 0 0 0
1 0 0 0
8 0 0 0
19 10 1 0
43 46 53 65
96 125 131 129
147 181 188 200
235 302 266 264
253 313 283 251
210 270 256 256
141 196 216 231
19 66 106 128
0 0 0 0
0 0 0 0
0 0 0 0
0 0 0 0
0 0 0 0
0 0 0 0
1 0 0 0
16 1 0 0
31 20 14 9
61 74 95 124
128 144 134 150
191 246 242 245
255 322 309 280
248 306 283 259
190 253 259 241
122 187 198 192
0 13 20 21
0 0 0 0
0 0 0 0
0 0 0 0
0 0 0 0
0 0 0 0
0 0 0 0
10 0 0 0
15 3 0 0
38 35 32 31
92 125 133 127
145 184 193 200
227 288 253 265
249 329 300 264
212 287 255 258
151 227 248 248
34 100 131 125
0 0 0 0
0 0 0 0
0 0 0 0
0 0 0 0
0 0 0 0
0 0 0 0
5 0 0 0
16 2 0 0
25 21 12 5
64 81 105 128
129 163 163 155
184 248 255 253
249 333 312 280
243 308 283 257
186 256 248 251
114 169 160 141
0 0 0 0
0 0 0 0
0 0 0 0
0 0 0 0
0 0 0 0
0 0 0 0
0 0 0 0
2 0 0 0
17 4 0 0
32 23 17 7
69 86 114 119
132 150 150 139
201 258 250 260
255 309 287 260
230 309 266 250
174 254 242 238
92 160 149 133
0 0 0 0
0 0 0 0
0 0 0 0
0 0 0 0
0 0 0 0
0 0 0 0
0 0 0 0
7 0 0 0
14 1 0 0
34 29 28 30
72 102 132 126
129 186 194 205
205 268 265 259
250 330 315 281
221 305 269 255
160 247 247 245
56 132 143 130
0 0 0 0
0 0 0 0
0 0 0 0
0 0 0 0
0 0 0 0
0 0 0 0
0 0 0 0
14 0 0 0
23 11 3 0
46 47 52 61
110 133 136 127
164 211 231 250
249 327 315 281
254 313 305 265
198 263 262 247
132 185 197 211
1 31 48 70
0 0 0 0
0 0 0 0
0 0 0 0
0 0 0 0
0 0 0 0
0 0 0 0
1 0 0 0
14 1 0 0
26 19 14 5
65 76 103 131
128 160 158 154
186 252 257 253
250 332 322 286
240 307 285 250
185 254 260 249
113 160 160 147
0 0 0 0
0 0 0 0
0 0 0 0
0 0 0 0
0 0 0 0
0 0 0 0
0 0 0 0
1 0 0 0
17 3 0 0
30 25 23 21
72 92 118 129
130 157 153 140
202 251 255 254
252 305 280 252
232 306 264 257
176 249 255 246
89 155 135 137
0 0 0 0
0 0 0 0
0 0 0 0
0 0 0 0
0 0 0 0
0 0 0 0
0 0 0 0
5 0 0 0
21 6 0 0
38 36 38 42
85 120 129 125
143 188 198 208
219 285 256 249
252 326 306 265
225 305 270 253
164 247 246 239
53 127 135 127
0 0 0 0
0 0 0 0
0 0 0 0
0 0 0 0
0 0 0 0
0 0 0 0
0 0 0 0
9 0 0 0
21 12 4 0
48 53 64 81
108 132 137 131
168 210 238 231
249 322 310 274
254 315 299 256
200 265 260 240
136 181 195 196
7 36 57 76
0 0 0 0
0 0 0 0
0 0 0 0
0 0 0 0
0 0 0 0
0 0 0 0
3 0 0 0
11 0 0 0
20 7 1 0
52 58 66 85
113 125 133 134
170 210 229 252
254 300 283 258
248 321 294 252
197 263 249 257
135 193 206 222
1 32 53 79
0 0 0 0
0 0 0 0
0 0 0 0
0 0 0 0
0 0 0 0
0 0 0 0
2 0 0 0
12 2 0 0
27 19 14 8
64 82 105 129
129 163 163 155
193 254 249 262
252 316 296 261
243 300 265 249
186 258 248 248
111 164 163 142
0 0 0 0
0 0 0 0
0 0 0 0
0 0 0 0
0 0 0 0
0 0 0 0
0 0 0 0
4 0 0 0
17 5 0 0
34 30 30 29
77 100 125 127
135 171 178 184
209 263 257 249
249 319 295 255
228 304 264 253
170 248 254 241
72 134 138 131
0 0 0 0
0 0 0 0
0 0 0 0
0 0 0 0
0 0 0 0
0 0 0 0
1 0 0 0
8 0 0 0
16 1 0 0
40 38 38 47
94 129 131 129
149 193 210 226
224 294 262 257
249 328 306 265
211 288 257 258
151 224 246 246
35 96 133 126
0 0 0 0
0 0 0 0
0 0 0 0
0 0 0 0
0 0 0 0
0 0 0 0
1 0 0 0
13 3 0 0
25 16 11 2
56 64 83 107
126 135 151 139
183 230 252 238
254 314 302 265
247 306 279 252
194 258 253 256
125 168 162 151
0 4 1 0
0 0 0 0
0 0 0 0
0 0 0 0
0 0 0 0
0 0 0 0
0 0 0 0
4 0 0 0
11 0 0 0
16 8 0 0
51 57 66 87
115 131 132 133
179 224 244 254
255 310 295 259
254 305 279 256
193 259 246 255
127 199 210 225
0 37 61 92
0 0 0 0
0 0 0 0
0 0 0 0
0 0 0 0
0 0 0 0
0 0 0 0
3 0 0 0
15 4 0 0
25 15 5 0
59 75 91 122
130 141 134 137
190 244 247 245
256 317 307 266
249 309 283 253
190 252 257 249
123 185 183 178
0 6 5 0
0 0 0 0
0 0 0 0
0 0 0 0
0 0 0 0
0 0 0 0
0 0 0 0
6 0 0 0
12 1 0 0
25 12 7 0
61 72 92 118
128 140 138 133
181 235 254 233
253 314 301 264
246 304 278 255
192 256 257 250
117 180 173 159
0 10 7 0
0 0 0 0
0 0 0 0
0 0 0 0
0 0 0 0
0 0 0 0
0 0 0 0
5 0 0 0
12 0 0 0
22 17 5 1
66 76 103 128
132 146 142 136
195 249 255 249
252 332 318 280
233 322 293 258
182 256 254 249
101 168 155 136
0 0 0 0
0 0 0 0
0 0 0 0
0 0 0 0
0 0 0 0
0 0 0 0
0 0 0 0
4 0 0 0
10 1 0 0
31 31 26 29
75 102 125 127
136 165 172 170
213 266 257 249
254 300 275 259
222 291 256 253
159 229 251 247
61 126 139 129
0 0 0 0
0 0 0 0
0 0 0 0
0 0 0 0
0 0 0 0
0 0 0 0
1 0 0 0
13 0 0 0
21 9 4 0
41 41 46 50
103 135 127 132
164 210 232 250
246 320 304 266
253 315 295 252
201 268 256 241
130 186 196 204
10 39 66 92
0 0 0 0
0 0 0 0
0 0 0 0
0 0 0 0
0 0 0 0
0 0 0 0
2 0 0 0
11 0 0 0
18 8 0 0
52 59 66 85
112 127 134 135
178 220 248 241
252 308 295 259
255 304 281 258
196 258 251 254
125 197 203 214
0 31 50 70
0 0 0 0
0 0 0 0
0 0 0 0
0 0 0 0
0 0 0 0
0 0 0 0
3 0 0 0
11 0 0 0
26 20 13 9
55 73 87 116
131 144 134 149
194 247 252 240
256 313 299 267
247 303 272 260
187 255 247 245
116 171 171 159
0 3 0 0
0 0 0 0
0 0 0 0
0 0 0 0
0 0 0 0
0 0 0 0
0 0 0 0
2 0 0 0
14 3 0 0
25 14 8 1
58 69 87 117
131 142 133 138
193 249 245 250
256 320 298 260
244 305 272 248
187 250 259 247
114 159 157 140
0 0 0 0
0 0 0 0
0 0 0 0
0 0 0 0
0 0 0 0
0 0 0 0
0 0 0 0
5 0 0 0
10 1 0 0
31 24 18 19
74 99 126 124
134 165 169 163
199 252 250 257
251 304 281 253
228 299 259 244
175 254 255 247
85 143 128 132
0 0 0 0
0 0 0 0
0 0 0 0
0 0 0 0
0 0 0 0
0 0 0 0
0 0 0 0
4 0 0 0
19 6 0 0
32 31 25 23
84 116 122 122
141 182 192 198
219 282 255 263
251 325 299 260
215 294 261 257
154 233 258 231
47 121 134 133
0 0 0 0
0 0 0 0
0 0 0 0
0 0 0 0
0 0 0 0
0 0 0 0
1 0 0 0
16 0 0 0
24 15 6 1
47 54 60 78
115 134 128 141
176 219 242 239
252 308 294 261
254 305 283 254
193 257 250 253
134 183 194 199
1 29 46 63
0 0 0 0
0 0 0 0
0 0 0 0
0 0 0 0
0 0 0 0
0 0 0 0
4 0 0 0
16 2 0 0
27 22 16 12
70 92 119 124
135 158 163 158
200 255 249 254
252 306 283 256
238 315 277 252
179 253 247 241
105 177 177 164
0 0 0 0
0 0 0 0
0 0 0 0
0 0 0 0
0 0 0 0
0 0 0 0
0 0 0 0
3 0 0 0
17 4 0 0
29 30 20 18
79 113 135 124
136 172 177 177
213 273 254 247
256 301 282 256
223 290 258 248
158 227 251 255
55 130 138 130
0 0 0 0
0 0 0 0
0 0 0 0
0 0 0 0
0 0 0 0
0 0 0 0
1 0 0 0
8 0 0 0
16 3 0 0
46 44 49 61
96 125 130 126
151 191 201 212
237 311 279 257
252 317 291 254
207 271 260 240
139 200 222 244
14 62 104 135
0 0 0 0
0 0 0 0
0 0 0 0
0 0 0 0
0 0 0 0
0 0 0 0
4 0 0 0
12 0 0 0
22 9 1 0
54 59 70 95
113 133 128 141
173 216 238 257
252 308 292 264
250 328 310 269
188 262 252 239
128 194 205 217
0 30 51 75
0 0 0 0
0 0 0 0
0 0 0 0
0 0 0 0
0 0 0 0
0 0 0 0
7 0 0 0
13 1 0 0
27 19 9 1
60 71 90 118
132 143 133 152
192 248 245 249
256 319 310 279
247 307 283 254
194 258 254 253
117 176 173 159
0 5 4 0
0 0 0 0
0 0 0 0
0 0 0 0
0 0 0 0
0 0 0 0
0 0 0 0
1 0 0 0
16 3 0 0
31 26 19 20
74 101 127 129
134 174 181 186
210 261 253 251
256 312 295 260
230 308 266 253
171 248 252 230
84 144 137 131
0 0 0 0
0 0 0 0
0 0 0 0
0 0 0 0
0 0 0 0
0 0 0 0
0 0 0 0
3 0 0 0
17 4 0 0
32 31 24 25
84 119 125 129
141 181 190 197
215 282 255 255
249 326 304 263
217 294 257 251
155 229 255 247
50 120 137 134
0 0 0 0
0 0 0 0
0 0 0 0
0 0 0 0
0 0 0 0
0 0 0 0
3 0 0 0
10 0 0 0
22 13 8 1
47 53 62 79
115 129 141 136
177 221 250 249
251 327 316 287
247 330 317 269
187 258 256 249
126 175 177 172
0 14 21 15
0 0 0 0
0 0 0 0
0 0 0 0
0 0 0 0
0 0 0 0
0 0 0 0
5 0 0 0
9 1 0 0
23 19 11 5
57 69 86 114
129 141 139 138
191 244 249 245
255 311 296 257
242 296 261 258
190 254 253 239
117 175 177 163
0 4 4 0
0 0 0 0
0 0 0 0
0 0 0 0
0 0 0 0
0 0 0 0
0 0 0 0
6 0 0 0
11 1 0 0
26 15 8 1
61 75 95 125
126 134 152 134
181 232 252 232
252 331 318 282
246 313 298 253
194 255 263 232
124 167 167 151
0 1 1 0
0 0 0 0
0 0 0 0
0 0 0 0
0 0 0 0
0 0 0 0
0 0 0 0
6 0 0 0
10 0 0 0
27 20 19 13
67 84 111 117
132 151 149 132
197 253 248 242
251 310 292 255
231 306 265 256
173 250 257 234
95 163 156 135
0 0 0 0
