## File generated by myo_cap software
## Available from github.com/ddantas/myo_cap
## Timestamp: 2018-05-23_20-57-32
##
## EMG capture settings##
# sampleRate: 2000.0
# channelsPerBoard: 4.0
# nBoards: 1.0
# bitsPerSample: 12.0
##
## Data
## t; ch0; ch1; ch2; ch3
0 0 0
0 0 0 0
0 0 0 0
4 0 0 0
17 4 0 0
32 26 21 16
88 118 126 123
148 192 205 221
225 292 261 261
254 309 288 255
226 295 255 250
164 242 260 239
63 131 151 128
0 0 0 0
0 0 0 0
0 0 0 0
0 0 0 0
0 0 0 0
0 0 0 0
0 0 0 0
11 0 0 0
18 110
0 0 0 0
0 0 0 0
0 0 0 0
13 4 0 0
25 19 18 14
68 87 118 129
134 156 160 157
191 253 255 254
256 311 294 264
242 293 265 249
183 249 253 249
95 159 138 130
0 0 0 0
0 0 0 0
0 0 0 0
0 0 0 0
0 0 0 0
0 0 0 0
0 0 0 0
5 0 0 0
10 0 0 0
33 25 24 26
77 100 125 126
135 165 171 170
210 264 256 247
255 300 276 255
218 284 254 246
157 227 254 257
59 127 133 127
0 0 0 0
0 0 0 0
0 0 0 0
0 0 0 0
0 0 0 0
0 0 0 0
1 0 0 0
14 1 0 0
15 7 0 0
44 49 53 71
103 133 132 137
167 211 240 231
248 317 308 265
249 333 317 271
197 271 252 241
134 197 217 238
8 43 75 117
0 0 0 0
0 0 0 0
0 0 0 0
0 0 0 0
0 0 0 0
0 0 0 0
4 0 0 0
14 3 0 0
27 20 17 11
71 90 119 128
132 150 143 131
195 253 258 251
252 314 294 261
237 321 289 254
185 254 249 246
100 162 145 124
0 0 0 0
0 0 0 0
0 0 0 0
0 0 0 0
0 0 0 0
0 0 0 0
0 0 0 0
3 0 0 0
17 5 0 0
35 35 34 36
86 118 127 130
141 179 187 195
222 283 257 255
255 300 272 267
218 286 256 260
160 228 250 251
53 122 135 133
0 0 0 0
0 0 0 0
0 0 0 0
0 0 0 0
0 0 0 0
0 0 0 0
3 0 0 0
14 2 0 0
24 13 5 0
55 63 74 99
115 129 130 143
178 223 242 253
252 330 311 275
250 333 320 271
192 262 261 261
129 194 208 219
0 32 55 78
0 0 0 0
0 0 0 0
0 0 0 0
0 0 0 0
0 0 0 0
0 0 0 0
1 0 0 0
14 1 0 0
27 22 18 12
72 95 120 136
135 160 161 156
205 254 253 259
257 305 280 250
232 305 264 246
175 253 250 247
100 167 152 140
0 0 0 0
0 0 0 0
0 0 0 0
0 0 0 0
0 0 0 0
0 0 0 0
1 0 0 0
4 0 0 0
18 8 0 0
35 38 35 39
83 116 125 125
145 192 205 224
216 283 256 264
251 328 302 268
218 302 265 250
160 239 256 246
50 128 128 130
0 0 0 0
0 0 0 0
0 0 0 0
0 0 0 0
0 0 0 0
0 0 0 0
1 0 0 0
9 0 0 0
21 10 3 0
52 57 68 90
112 129 132 134
176 218 243 237
251 325 312 277
251 333 320 272
197 267 259 238
135 187 204 213
4 35 61 87
0 0 0 0
0 0 0 0
0 0 0 0
0 0 0 0
0 0 0 0
0 0 0 0
2 0 0 0
15 4 0 0
22 13 3 0
56 72 87 117
126 135 153 143
183 233 254 244
255 308 291 257
246 316 292 249
186 255 258 253
117 185 188 181
0 14 18 14
0 0 0 0
0 0 0 0
0 0 0 0
0 0 0 0
0 0 0 0
0 0 0 0
7 0 0 0
20 10 1 0
39 40 43 53
86 118 129 122
142 176 184 189
225 286 260 260
251 326 300 262
216 293 255 256
152 226 251 252
42 115 129 134
0 0 0 0
0 0 0 0
0 0 0 0
0 0 0 0
0 0 0 0
0 0 0 0
3 0 0 0
16 1 0 0
18 10 0 0
49 57 62 80
116 129 128 135
182 229 252 253
255 316 301 266
254 303 279 253
192 257 255 259
129 179 179 174
0 14 14 7
0 0 0 0
0 0 0 0
0 0 0 0
0 0 0 0
0 0 0 0
0 0 0 0
1 0 0 0
14 4 0 0
21 14 2 1
60 74 94 119
125 134 150 131
186 240 256 254
253 316 298 267
244 304 274 249
194 257 250 247
126 168 165 153
0 0 0 0
0 0 0 0
0 0 0 0
0 0 0 0
0 0 0 0
0 0 0 0
0 0 0 0
3 0 0 0
15 2 0 0
24 16 6 1
62 75 95 125
130 142 132 150
184 238 252 239
255 314 304 266
246 304 278 247
196 256 254 252
126 167 166 155
0 0 0 0
0 0 0 0
0 0 0 0
0 0 0 0
0 0 0 0
0 0 0 0
0 0 0 0
7 0 0 0
17 3 0 0
30 25 23 22
69 88 116 127
133 155 146 132
198 253 257 243
252 305 288 255
233 308 271 258
171 251 258 241
92 158 152 131
0 0 0 0
0 0 0 0
0 0 0 0
0 0 0 0
0 0 0 0
0 0 0 0
0 0 0 0
7 0 0 0
17 5 0 0
38 35 35 38
85 119 130 128
138 183 192 201
219 284 257 260
248 331 310 273
221 297 265 245
159 237 259 234
55 129 137 135
0 0 0 0
0 0 0 0
0 0 0 0
0 0 0 0
0 0 0 0
0 0 0 0
3 0 0 0
14 0 0 0
20 7 0 0
50 55 61 79
106 128 132 136
166 202 222 248
247 314 294 263
251 333 311 266
198 267 259 234
134 191 206 218
5 41 66 99
0 0 0 0
0 0 0 0
0 0 0 0
0 0 0 0
0 0 0 0
0 0 0 0
5 0 0 0
12 1 0 0
21 11 1 0
49 56 63 82
119 130 137 132
183 233 251 233
255 317 304 267
249 331 310 266
194 263 254 253
128 182 192 195
0 13 20 20
0 0 0 0
0 0 0 0
0 0 0 0
0 0 0 0
0 0 0 0
0 0 0 0
5 0 0 0
20 4 0 0
35 31 31 34
78 105 128 131
137 172 175 180
206 260 251 245
253 307 284 252
225 300 261 250
165 243 259 252
72 133 142 128
0 0 0 0
0 0 0 0
0 0 0 0
0 0 0 0
0 0 0 0
0 0 0 0
1 0 0 0
13 0 0 0
14 4 0 0
41 42 43 51
102 125 137 128
161 203 224 242
249 301 280 248
253 306 276 247
211 272 248 256
132 186 200 211
7 43 70 103
0 0 0 0
0 0 0 0
0 0 0 0
0 0 0 0
0 0 0 0
0 0 0 0
4 0 0 0
13 3 0 0
24 18 12 5
54 68 82 114
126 134 150 137
183 231 254 239
255 312 301 264
246 318 294 256
186 256 250 262
117 186 187 187
0 10 8 5
0 0 0 0
0 0 0 0
0 0 0 0
0 0 0 0
0 0 0 0
0 0 0 0
5 0 0 0
17 5 0 0
26 15 10 2
68 80 104 128
135 154 153 146
197 253 246 246
252 312 298 262
236 315 285 256
184 251 253 250
102 165 160 142
0 0 0 0
0 0 0 0
0 0 0 0
0 0 0 0
0 0 0 0
0 0 0 0
0 0 0 0
7 0 0 0
20 7 1 0
38 33 31 27
91 123 128 128
142 184 195 207
222 284 260 255
252 329 304 266
215 295 258 249
154 235 252 237
50 125 135 132
0 0 0 0
0 0 0 0
0 0 0 0
0 0 0 0
0 0 0 0
0 0 0 0
2 0 0 0
16 1 0 0
18 7 0 0
45 45 48 55
106 132 121 130
168 217 232 250
249 322 309 268
249 332 319 269
200 273 258 242
132 185 200 197
0 31 48 65
0 0 0 0
0 0 0 0
0 0 0 0
0 0 0 0
0 0 0 0
0 0 0 0
3 0 0 0
13 0 0 0
19 11 1 0
58 68 81 113
124 131 143 134
180 222 249 255
252 307 291 261
248 303 275 250
194 255 261 250
130 178 188 191
0 10 17 15
0 0 0 0
0 0 0 0
0 0 0 0
0 0 0 0
0 0 0 0
0 0 0 0
3 0 0 0
17 4 0 0
27 25 14 11
75 100 127 118
134 165 169 162
212 267 257 249
250 322 301 262
216 293 255 250
159 234 252 224
53 125 133 127
0 0 0 0
0 0 0 0
0 0 0 0
0 0 0 0
0 0 0 0
0 0 0 0
1 0 0 0
14 1 0 0
23 14 8 1
54 61 78 98
110 130 137 133
171 212 236 258
249 302 287 255
253 300 278 253
196 258 257 259
135 185 195 203
1 29 49 68
0 0 0 0
0 0 0 0
0 0 0 0
0 0 0 0
0 0 0 0
0 0 0 0
4 0 0 0
16 3 0 0
27 23 18 15
72 92 120 131
140 161 164 153
202 252 253 258
257 308 282 253
238 313 276 250
182 255 256 234
100 163 156 135
0 0 0 0
0 0 0 0
0 0 0 0
0 0 0 0
0 0 0 0
0 0 0 0
0 0 0 0
9 0 0 0
11 1 0 0
26 26 15 13
78 102 127 125
136 168 175 173
219 273 260 257
251 321 300 260
218 292 255 256
155 231 254 262
46 116 131 130
0 0 0 0
0 0 0 0
0 0 0 0
0 0 0 0
0 0 0 0
0 0 0 0
0 0 0 0
13 0 0 0
20 7 0 0
50 53 60 79
111 130 134 135
169 206 222 244
253 324 309 280
250 332 317 270
196 267 264 241
133 182 195 203
3 33 51 74
0 0 0 0
0 0 0 0
0 0 0 0
0 0 0 0
0 0 0 0
0 0 0 0
4 0 0 0
13 1 0 0
28 21 15 8
57 70 89 118
129 140 134 134
188 241 256 248
253 316 303 268
245 304 274 252
193 256 255 244
124 166 169 151
0 0 0 0
0 0 0 0
0 0 0 0
0 0 0 0
0 0 0 0
0 0 0 0
0 0 0 0
4 0 0 0
10 0 0 0
25 20 19 15
70 84 116 123
132 151 149 139
204 253 255 245
255 305 286 254
231 305 264 254
178 256 246 241
90 158 149 128
0 0 0 0
0 0 0 0
0 0 0 0
0 0 0 0
0 0 0 0
0 0 0 0
0 0 0 0
8 0 0 0
14 1 0 0
33 26 22 18
85 114 140 132
144 184 197 212
219 285 258 261
251 306 279 248
220 286 252 258
155 228 246 246
54 127 131 126
0 0 0 0
0 0 0 0
0 0 0 0
0 0 0 0
0 0 0 0
0 0 0 0
1 0 0 0
15 1 0 0
16 8 0 0
41 43 43 51
103 127 132 126
166 212 237 226
245 321 303 267
250 338 327 290
199 276 249 253
132 186 193 195
1 31 47 61
0 0 0 0
0 0 0 0
0 0 0 0
0 0 0 0
0 0 0 0
0 0 0 0
1 0 0 0
16 1 0 0
31 20 13 4
56 73 92 118
129 143 137 138
189 243 248 242
255 316 301 260
247 304 277 250
199 253 254 249
124 165 160 137
0 0 0 0
0 0 0 0
0 0 0 0
0 0 0 0
0 0 0 0
0 0 0 0
0 0 0 0
7 0 0 0
17 5 0 0
29 27 21 20
68 88 111 121
138 161 158 148
204 257 252 261
251 308 285 259
229 303 265 255
176 252 254 246
87 152 137 134
0 0 0 0
0 0 0 0
0 0 0 0
0 0 0 0
0 0 0 0
0 0 0 0
0 0 0 0
9 0 0 0
18 9 1 0
37 35 35 38
84 119 128 125
137 179 184 189
211 272 264 251
249 320 299 264
220 301 266 250
160 238 255 243
61 128 137 133
0 0 0 0
0 0 0 0
0 0 0 0
0 0 0 0
0 0 0 0
0 0 0 0
1 0 0 0
8 0 0 0
15 3 0 0
43 45 48 59
95 123 129 127
156 188 204 224
243 285 260 254
252 304 276 261
212 275 251 242
140 201 220 239
16 61 97 135
0 0 0 0
0 0 0 0
0 0 0 0
0 0 0 0
0 0 0 0
0 0 0 0
1 0 0 0
13 1 0 0
25 20 9 3
56 69 86 117
123 132 149 136
172 215 243 234
254 304 293 261
249 305 276 253
197 258 245 252
128 175 172 159
0 8 2 0
0 0 0 0
0 0 0 0
0 0 0 0
0 0 0 0
0 0 0 0
0 0 0 0
3 0 0 0
10 0 0 0
23 16 8 3
57 68 86 121
118 144 131 132
179 233 254 239
252 313 299 263
242 300 269 253
190 251 259 247
130 178 188 188
0 6 7 1
0 0 0 0
0 0 0 0
0 0 0 0
0 0 0 0
0 0 0 0
0 0 0 0
2 0 0 0
10 0 0 0
24 16 11 4
55 69 85 112
128 141 132 137
188 244 245 241
251 315 301 267
242 299 266 258
190 258 242 252
122 197 197 198
0 17 22 22
0 0 0 0
0 0 0 0
0 0 0 0
0 0 0 0
0 0 0 0
0 0 0 0
5 0 0 0
13 1 0 0
29 25 17 13
78 105 121 127
137 171 171 173
216 273 254 252
250 320 297 265
210 285 249 260
152 228 252 260
43 118 132 130
0 0 0 0
0 0 0 0
0 0 0 0
0 0 0 0
0 0 0 0
0 0 0 0
1 0 0 0
10 3 0 0
21 13 6 1
52 63 74 102
119 130 135 148
185 229 252 261
256 313 299 264
249 325 302 253
194 264 255 243
129 190 200 205
0 12 25 25
0 0 0 0
0 0 0 0
0 0 0 0
0 0 0 0
0 0 0 0
0 0 0 0
7 0 0 0
17 4 0 0
35 33 29 30
80 108 134 124
134 190 199 206
209 273 253 252
251 325 301 259
219 299 263 248
165 248 246 254
66 135 128 132
0 0 0 0
0 0 0 0
0 0 0 0
0 0 0 0
0 0 0 0
0 0 0 0
0 0 0 0
6 0 0 0
22 10 2 0
44 52 56 74
100 127 134 127
163 209 234 249
245 317 303 265
251 339 326 279
201 277 258 254
138 202 219 240
11 53 92 125
0 0 0 0
0 0 0 0
0 0 0 0
0 0 0 0
0 0 0 0
0 0 0 0
5 0 0 0
20 2 1 0
34 27 26 23
73 101 132 127
131 183 195 204
203 263 259 251
249 321 301 266
223 301 268 257
174 251 253 251
79 137 137 130
0 0 0 0
0 0 0 0
0 0 0 0
0 0 0 0
0 0 0 0
0 0 0 0
0 0 0 0
8 0 0 0
21 9 1 0
37 35 32 29
85 115 124 134
146 182 189 197
228 287 254 258
253 307 280 258
216 282 255 248
153 220 244 237
38 109 133 128
0 0 0 0
0 0 0 0
0 0 0 0
0 0 0 0
0 0 0 0
0 0 0 0
0 0 0 0
9 0 0 0
17 7 0 0
44 50 55 69
104 134 130 135
166 214 235 249
250 323 313 281
248 331 318 272
201 275 258 253
136 197 209 226
13 50 86 120
0 0 0 0
0 0 0 0
0 0 0 0
0 0 0 0
0 0 0 0
0 0 0 0
1 0 0 0
14 3 0 0
26 15 7 1
64 79 99 131
127 146 135 157
193 247 252 247
256 309 287 265
242 292 263 249
184 254 247 245
118 171 172 153
0 0 0 0
0 0 0 0
0 0 0 0
0 0 0 0
0 0 0 0
0 0 0 0
0 0 0 0
3 0 0 0
10 1 0 0
26 23 19 19
74 97 126 121
133 163 165 159
208 256 249 259
254 309 288 255
232 309 272 253
172 251 259 241
87 149 142 130
0 0 0 0
0 0 0 0
0 0 0 0
0 0 0 0
0 0 0 0
0 0 0 0
0 0 0 0
5 0 0 0
21 8 3 0
36 28 29 27
86 119 128 129
145 192 202 221
224 292 261 257
251 310 285 252
218 284 257 254
155 226 250 254
50 120 134 133
0 0 0 0
0 0 0 0
0 0 0 0
0 0 0 0
0 0 0 0
0 0 0 0
3 0 0 0
16 2 0 0
19 8 1 0
44 45 49 53
110 133 131 127
171 219 241 236
251 326 314 276
256 316 304 260
198 266 256 240
131 178 187 188
0 23 35 40
0 0 0 0
0 0 0 0
0 0 0 0
0 0 0 0
0 0 0 0
0 0 0 0
1 0 0 0
14 2 0 0
28 21 15 11
69 91 121 127
132 151 152 140
194 255 252 248
252 312 289 256
235 316 282 253
176 257 243 251
95 167 152 131
0 0 0 0
0 0 0 0
0 0 0 0
0 0 0 0
0 0 0 0
0 0 0 0
0 0 0 0
1 0 0 0
16 2 0 0
36 31 31 30
78 103 123 127
130 186 187 192
212 275 257 252
254 302 275 258
224 293 256 254
166 244 241 236
68 133 135 136
0 0 0 0
0 0 0 0
0 0 0 0
0 0 0 0
0 0 0 0
0 0 0 0
1 0 0 0
12 0 0 0
14 3 0 0
47 45 50 64
100 129 130 129
162 199 216 239
245 312 290 260
254 310 290 253
201 260 253 248
133 192 208 220
17 55 87 130
0 0 0 0
0 0 0 0
0 0 0 0
0 0 0 0
0 0 0 0
0 0 0 0
5 0 0 0
11 0 0 0
22 12 3 0
59 71 86 119
122 132 142 133
190 242 249 249
251 332 311 274
239 329 307 257
189 258 253 258
117 187 191 188
0 11 17 12
0 0 0 0
0 0 0 0
0 0 0 0
0 0 0 0
0 0 0 0
0 0 0 0
9 0 0 0
20 9 2 0
38 41 39 47
87 117 133 125
148 185 197 209
228 292 258 254
252 310 288 254
214 283 257 252
153 220 247 244
48 116 131 127
0 0 0 0
0 0 0 0
0 0 0 0
0 0 0 0
0 0 0 0
0 0 0 0
1 0 0 0
9 1 0 0
14 3 0 0
39 37 39 41
99 125 130 124
160 201 217 248
241 286 263 251
255 297 269 261
204 262 250 259
131 215 237 224
12 71 121 127
0 0 0 0
0 0 0 0
0 0 0 0
0 0 0 0
0 0 0 0
0 0 0 0
7 0 0 0
17 1 0 0
31 25 22 20
74 100 129 126
130 165 170 169
211 259 248 257
254 329 305 271
228 310 273 250
175 252 243 238
77 135 149 128
0 0 0 0
0 0 0 0
0 0 0 0
0 0 0 0
0 0 0 0
0 0 0 0
1 0 0 0
3 0 0 0
17 9 0 0
36 38 41 48
85 116 130 129
144 186 194 212
222 284 257 266
250 322 299 255
213 287 254 259
150 219 248 244
38 101 128 129
0 0 0 0
0 0 0 0
0 0 0 0
0 0 0 0
0 0 0 0
0 0 0 0
1 0 0 0
16 1 0 0
25 20 12 5
57 68 90 120
127 137 157 149
186 240 258 251
254 309 288 259
246 304 272 256
188 249 253 237
123 163 166 155
0 0 0 0
0 0 0 0
0 0 0 0
0 0 0 0
0 0 0 0
0 0 0 0
0 0 0 0
1 0 0 0
16 4 0 0
24 20 9 2
57 68 86 112
127 139 138 137
183 233 254 234
253 313 299 262
243 295 259 260
194 254 260 246
124 165 167 151
0 1 0 0
0 0 0 0
0 0 0 0
0 0 0 0
0 0 0 0
0 0 0 0
0 0 0 0
1 0 0 0
16 4 0 0
24 14 7 0
54 67 80 106
128 136 155 142
190 241 250 255
255 309 284 258
247 303 265 256
191 258 243 254
122 197 197 195
0 8 14 3
0 0 0 0
0 0 0 0
0 0 0 0
0 0 0 0
0 0 0 0
0 0 0 0
6 0 0 0
11 1 0 0
28 19 10 2
68 84 108 113
135 156 159 153
206 254 253 255
254 305 281 253
233 310 268 253
172 251 258 241
90 153 147 134
0 0 0 0
0 0 0 0
0 0 0 0
0 0 0 0
0 0 0 0
0 0 0 0
0 0 0 0
4 0 0 0
17 5 1 0
37 33 33 35
83 112 136 121
145 185 198 210
222 287 256 252
252 308 285 253
218 285 258 259
160 232 248 261
56 128 127 131
0 0 0 0
0 0 0 0
0 0 0 0
0 0 0 0
0 0 0 0
0 0 0 0
2 0 0 0
9 0 0 0
21 11 1 0
46 45 50 58
103 131 127 134
169 217 241 236
245 321 307 268
251 337 326 285
197 267 265 242
138 194 210 220
1 38 60 90
0 0 0 0
0 0 0 0
0 0 0 0
0 0 0 0
0 0 0 0
0 0 0 0
3 0 0 0
17 2 0 0
25 20 13 7
57 72 90 116
125 142 138 136
187 242 243 241
252 334 321 292
241 305 283 259
194 255 256 260
124 171 168 160
0 1 0 0
0 0 0 0
0 0 0 0
0 0 0 0
0 0 0 0
0 0 0 0
0 0 0 0
6 0 0 0
12 1 0 0
29 23 18 15
68 88 115 124
133 153 148 139
203 253 258 253
254 298 275 269
230 300 259 254
180 254 241 252
98 164 148 138
0 0 0 0
0 0 0 0
0 0 0 0
0 0 0 0
0 0 0 0
0 0 0 0
0 0 0 0
6 0 0 0
19 7 0 0
31 31 25 26
83 114 131 121
137 172 177 174
218 272 259 252
251 325 303 264
219 294 258 243
157 233 251 253
53 126 134 124
0 0 0 0
0 0 0 0
0 0 0 0
0 0 0 0
0 0 0 0
0 0 0 0
1 0 0 0
14 0 0 0
22 8 1 0
50 54 61 76
111 135 133 137
170 210 227 249
249 319 301 266
249 340 324 287
203 280 254 259
133 198 212 231
7 51 82 120
0 0 0 0
0 0 0 0
0 0 0 0
0 0 0 0
0 0 0 0
0 0 0 0
3 0 0 0
10 0 0 0
25 18 14 9
66 81 106 129
129 167 167 160
192 258 246 257
252 334 318 277
240 303 277 248
181 253 253 252
108 184 178 164
0 0 0 0
0 0 0 0
0 0 0 0
0 0 0 0
0 0 0 0
0 0 0 0
0 0 0 0
3 0 0 0
17 5 0 0
34 25 24 15
84 110 133 119
137 171 172 170
210 262 261 255
251 321 296 252
218 295 260 259
160 244 250 249
53 124 132 132
0 0 0 0
0 0 0 0
0 0 0 0
0 0 0 0
0 0 0 0
0 0 0 0
1 0 0 0
9 0 0 0
18 11 1 0
38 43 42 48
103 129 135 127
166 210 238 226
248 301 279 259
255 312 285 248
206 267 260 233
131 184 194 199
15 49 74 105
0 0 0 0
0 0 0 0
0 0 0 0
0 0 0 0
0 0 0 0
0 0 0 0
5 0 0 0
12 1 0 0
23 14 3 0
57 67 81 105
129 137 154 142
192 244 244 254
255 317 300 260
248 305 278 250
192 255 257 245
117 178 184 166
0 1 2 0
0 0 0 0
0 0 0 0
0 0 0 0
0 0 0 0
0 0 0 0
0 0 0 0
1 0 0 0
19 2 0 0
30 26 21 21
71 92 117 127
129 154 148 132
199 253 246 251
251 312 289 255
230 302 266 255
169 249 254 247
84 152 136 129
0 0 0 0
0 0 0 0
0 0 0 0
0 0 0 0
0 0 0 0
0 0 0 0
0 0 0 0
3 0 0 0
20 5 1 0
35 31 26 26
81 111 134 117
146 183 194 201
222 286 259 261
255 302 275 270
219 283 255 259
160 233 257 238
55 129 130 131
0 0 0 0
0 0 0 0
0 0 0 0
0 0 0 0
0 0 0 0
0 0 0 0
1 0 0 0
14 0 0 0
22 14 4 1
55 64 79 103
117 138 136 133
175 228 252 254
251 309 295 269
248 306 279 256
198 258 252 252
130 199 208 221
0 26 41 55
0 0 0 0
0 0 0 0
0 0 0 0
0 0 0 0
0 0 0 0
0 0 0 0
2 0 0 0
16 3 0 0
26 22 12 8
71 92 123 126
129 152 155 147
201 257 256 246
254 300 281 257
230 301 259 250
177 252 255 248
93 159 147 136
0 0 0 0
0 0 0 0
0 0 0 0
0 0 0 0
0 0 0 0
0 0 0 0
0 0 0 0
3 0 0 0
17 4 1 0
32 26 25 21
82 111 135 126
137 171 175 175
219 274 257 249
251 304 283 248
224 290 258 249
161 231 246 252
61 130 133 128
0 0 0 0
0 0 0 0
0 0 0 0
0 0 0 0
0 0 0 0
0 0 0 0
0 0 0 0
13 1 0 0
25 15 7 1
54 60 73 101
121 133 140 133
177 216 242 236
254 308 296 268
254 303 279 257
194 253 255 260
121 187 192 193
0 29 41 54
0 0 0 0
0 0 0 0
0 0 0 0
0 0 0 0
0 0 0 0
0 0 0 0
2 0 0 0
15 3 0 0
26 16 7 1
63 80 99 131
128 146 138 138
195 246 252 241
253 307 289 261
242 291 259 245
189 258 246 251
117 173 164 146
0 0 0 0
0 0 0 0
0 0 0 0
0 0 0 0
0 0 0 0
0 0 0 0
0 0 0 0
6 0 0 0
14 1 0 0
29 20 12 3
72 91 121 132
133 150 154 141
202 254 253 258
253 334 314 274
231 317 284 248
174 254 243 251
100 169 157 133
0 0 0 0
0 0 0 0
0 0 0 0
0 0 0 0
0 0 0 0
0 0 0 0
0 0 0 0
8 0 0 0
19 8 1 0
38 39 38 44
90 122 132 133
142 177 184 189
223 284 256 254
251 304 279 262
216 278 261 253
155 220 250 253
44 112 135 134
0 0 0 0
0 0 0 0
0 0 0 0
0 0 0 0
0 0 0 0
0 0 0 0
1 0 0 0
13 0 0 0
23 16 7 2
51 58 69 88
116 129 133 131
179 228 248 249
252 332 316 285
246 330 311 265
190 263 256 240
127 207 230 244
0 35 62 89
0 0 0 0
0 0 0 0
0 0 0 0
0 0 0 0
0 0 0 0
0 0 0 0
4 0 0 0
16 4 0 0
32 28 23 21
71 92 117 129
131 156 155 138
202 251 255 252
252 306 280 250
233 306 263 255
173 251 258 243
90 155 147 137
0 0 0 0
0 0 0 0
0 0 0 0
0 0 0 0
0 0 0 0
0 0 0 0
0 0 0 0
8 0 0 0
19 10 1 0
41 43 44 54
91 129 130 129
142 183 194 196
224 287 252 260
252 328 304 265
216 294 254 250
152 228 251 251
42 111 134 133
0 0 0 0
0 0 0 0
0 0 0 0
0 0 0 0
0 0 0 0
0 0 0 0
0 0 0 0
8 0 0 0
22 10 4 0
45 52 55 70
114 132 135 137
176 220 244 239
251 306 295 262
250 331 311 266
198 268 260 238
133 181 194 198
0 23 42 53
0 0 0 0
0 0 0 0
0 0 0 0
0 0 0 0
0 0 0 0
0 0 0 0
2 0 0 0
16 3 0 0
31 24 22 21
76 94 126 124
134 165 163 158
206 257 259 249
257 305 283 256
230 303 266 252
181 254 245 254
99 165 152 132
0 0 0 0
0 0 0 0
0 0 0 0
0 0 0 0
0 0 0 0
0 0 0 0
0 0 0 0
10 0 0 0
21 9 2 0
33 35 28 29
87 119 131 121
139 174 177 180
219 275 258 247
253 295 272 260
214 276 252 248
151 215 244 245
43 114 145 133
0 0 0 0
0 0 0 0
0 0 0 0
0 0 0 0
0 0 0 0
0 0 0 0
3 0 0 0
11 0 0 0
25 17 7 2
55 68 81 109
122 149 133 149
173 225 243 248
252 312 292 260
249 306 273 258
194 257 253 244
127 195 208 213
0 27 43 58
0 0 0 0
0 0 0 0
0 0 0 0
0 0 0 0
0 0 0 0
0 0 0 0
5 0 0 0
13 1 0 0
30 23 17 10
77 102 132 130
130 181 190 199
212 273 257 254
249 331 307 266
224 308 270 249
166 247 255 233
61 129 140 127
0 0 0 0
0 0 0 0
0 0 0 0
0 0 0 0
0 0 0 0
0 0 0 0
0 0 0 0
8 0 0 0
21 8 1 0
42 44 49 57
99 130 132 130
149 183 196 198
231 298 264 259
252 310 288 256
216 280 256 253
141 205 221 246
30 77 124 131
0 0 0 0
0 0 0 0
0 0 0 0
0 0 0 0
0 0 0 0
0 0 0 0
1 0 0 0
16 2 0 0
25 19 12 6
61 69 91 116
129 142 134 138
190 243 245 241
255 312 295 257
242 298 265 250
191 254 259 245
123 166 172 164
0 0 0 0
0 0 0 0
0 0 0 0
0 0 0 0
0 0 0 0
0 0 0 0
0 0 0 0
6 0 0 0
16 3 0 0
24 26 19 20
73 98 127 123
130 157 158 144
202 254 251 254
255 301 275 265
236 314 272 256
181 257 244 253
93 160 142 130
0 0 0 0
0 0 0 0
0 0 0 0
0 0 0 0
0 0 0 0
0 0 0 0
0 0 0 0
7 0 0 0
14 2 0 0
32 24 21 14
83 111 135 120
147 179 191 196
215 272 258 257
251 323 304 268
219 295 259 248
162 244 243 239
54 122 133 133
0 0 0 0
0 0 0 0
0 0 0 0
0 0 0 0
0 0 0 0
0 0 0 0
0 0 0 0
11 0 0 0
21 11 2 0
51 57 67 88
114 130 135 136
177 220 248 245
252 306 296 266
254 306 284 248
197 260 254 231
129 178 185 179
0 24 33 36
0 0 0 0
0 0 0 0
0 0 0 0
0 0 0 0
0 0 0 0
0 0 0 0
1 0 0 0
16 3 0 0
27 20 19 11
70 84 117 119
133 151 150 135
195 256 247 243
252 312 298 261
236 318 285 255
178 254 243 250
101 172 160 136
0 0 0 0
0 0 0 0
0 0 0 0
0 0 0 0
0 0 0 0
0 0 0 0
0 0 0 0
9 0 0 0
21 11 0 0
41 42 45 56
87 121 132 129
151 193 210 231
227 292 264 258
252 310 283 248
213 280 258 249
153 219 246 247
38 97 136 131
0 0 0 0
0 0 0 0
0 0 0 0
0 0 0 0
0 0 0 0
0 0 0 0
1 0 0 0
12 0 0 0
21 12 4 0
54 60 75 97
113 127 137 134
180 223 245 247
253 309 291 259
254 303 279 258
191 253 255 248
128 197 208 218
0 33 55 80
0 0 0 0
0 0 0 0
0 0 0 0
0 0 0 0
0 0 0 0
0 0 0 0
1 0 0 0
16 2 0 0
28 23 21 19
74 96 127 120
135 165 168 162
198 252 255 253
252 308 294 257
233 310 274 248
170 251 259 244
89 157 148 130
0 0 0 0
0 0 0 0
0 0 0 0
0 0 0 0
0 0 0 0
0 0 0 0
0 0 0 0
7 0 0 0
18 5 0 0
31 26 20 13
84 115 118 136
142 183 191 203
215 275 255 249
253 300 267 265
222 284 261 254
162 229 255 231
57 130 133 129
0 0 0 0
0 0 0 0
0 0 0 0
0 0 0 0
0 0 0 0
0 0 0 0
2 0 0 0
8 0 0 0
15 4 0 0
44 42 45 53
97 125 132 127
158 194 209 231
235 309 274 267
253 334 310 265
210 280 258 251
139 206 226 245
19 72 122 128
0 0 0 0
0 0 0 0
0 0 0 0
0 0 0 0
0 0 0 0
0 0 0 0
6 0 0 0
16 3 0 0
29 23 20 16
72 97 122 122
132 156 153 137
198 255 248 247
253 334 313 275
233 319 290 259
181 250 254 243
91 152 138 128
0 0 0 0
0 0 0 0
0 0 0 0
0 0 0 0
0 0 0 0
0 0 0 0
0 0 0 0
2 0 0 0
17 6 0 0
26 26 15 13
75 100 123 119
139 172 180 182
214 267 265 253
256 302 282 248
220 288 254 255
160 232 255 248
62 127 139 127
0 0 0 0
0 0 0 0
0 0 0 0
0 0 0 0
0 0 0 0
0 0 0 0
0 0 0 0
7 0 0 0
21 9 0 0
44 47 51 64
101 134 127 136
165 212 238 230
249 303 285 253
259 316 295 255
212 276 257 241
139 196 219 232
16 62 98 135
0 0 0 0
0 0 0 0
0 0 0 0
0 0 0 0
0 0 0 0
0 0 0 0
0 0 0 0
10 0 0 0
26 17 12 4
57 73 90 115
130 142 134 138
193 249 242 252
255 313 286 252
248 306 273 255
192 254 255 255
118 184 181 176
0 5 3 0
0 0 0 0
0 0 0 0
0 0 0 0
0 0 0 0
0 0 0 0
0 0 0 0
5 0 0 0
11 1 0 0
23 13 5 1
61 74 96 125
127 134 151 135
186 240 254 252
255 316 299 266
245 301 273 247
191 253 257 253
114 173 166 149
0 1 0 0
0 0 0 0
0 0 0 0
0 0 0 0
0 0 0 0
0 0 0 0
0 0 0 0
3 0 0 0
16 4 0 0
28 20 12 2
72 92 120 129
138 160 166 163
198 252 252 263
254 315 300 266
237 319 287 253
177 254 246 253
95 163 148 131
0 0 0 0
0 0 0 0
0 0 0 0
0 0 0 0
0 0 0 0
0 0 0 0
0 0 0 0
2 0 0 0
17 5 0 0
37 31 31 33
82 114 131 130
135 173 177 179
212 263 256 260
251 321 300 258
219 295 259 245
164 245 245 240
64 132 130 129
0 0 0 0
0 0 0 0
0 0 0 0
0 0 0 0
0 0 0 0
0 0 0 0
2 0 0 0
16 1 0 0
23 14 8 2
54 60 75 96
113 127 138 133
171 212 230 253
254 302 284 259
250 326 301 261
195 262 258 254
129 175 181 184
0 23 29 36
0 0 0 0
0 0 0 0
0 0 0 0
0 0 0 0
0 0 0 0
0 0 0 0
5 0 0 0
16 4 0 0
27 23 19 16
72 92 117 131
132 158 157 150
192 254 246 247
252 314 300 267
236 319 288 254
181 251 245 247
98 170 157 131
0 1 0 0
0 0 0 0
0 0 0 0
0 0 0 0
0 0 0 0
0 0 0 0
0 0 0 0
3 0 0 0
15 3 0 0
35 30 29 30
74 102 125 127
136 172 184 193
211 263 261 250
251 320 299 264
223 305 267 249
165 250 248 241
65 130 129 127
0 0 0 0
0 0 0 0
0 0 0 0
0 0 0 0
0 0 0 0
0 0 0 0
0 0 0 0
5 0 0 0
13 3 0 0
34 31 25 29
92 125 136 128
154 195 216 240
233 306 278 252
256 306 283 256
211 275 248 256
141 202 222 249
27 84 131 131
0 0 0 0
0 0 0 0
0 0 0 0
0 0 0 0
0 0 0 0
0 0 0 0
5 0 0 0
12 1 0 0
27 18 13 5
56 70 85 112
128 139 132 135
183 233 253 238
255 309 293 254
244 296 266 258
187 258 250 258
123 177 180 178
0 4 4 0
0 0 0 0
0 0 0 0
0 0 0 0
0 0 0 0
0 0 0 0
0 0 0 0
5 0 0 0
11 0 0 0
20 13 1 0
58 72 87 115
125 131 143 130
186 237 259 242
254 334 322 287
247 314 294 254
194 257 253 253
123 171 166 156
0 0 0 0
0 0 0 0
0 0 0 0
0 0 0 0
0 0 0 0
0 0 0 0
0 0 0 0
1 0 0 0
14 1 0 0
25 14 6 0
57 68 84 106
130 138 137 137
192 245 248 246
252 311 296 264
242 296 263 262
190 257 254 242
121 185 187 187
0 3 2 0
0 0 0 0
0 0 0 0
0 0 0 0
0 0 0 0
0 0 0 0
0 0 0 0
1 0 0 0
16 1 0 0
33 27 21 21
73 93 122 118
138 163 167 165
206 255 257 257
255 303 279 258
228 301 259 245
175 249 248 246
90 152 134 134
0 0 0 0
0 0 0 0
0 0 0 0
0 0 0 0
0 0 0 0
0 0 0 0
0 0 0 0
9 0 0 0
13 1 0 0
33 24 21 13
83 103 125 130
141 173 179 181
216 270 265 251
251 322 303 262
216 294 255 253
153 230 252 251
44 116 133 134
0 0 0 0
0 0 0 0
0 0 0 0
0 0 0 0
0 0 0 0
0 0 0 0
1 0 0 0
10 1 0 0
21 14 5 1
52 62 73 94
113 127 138 131
172 214 238 251
250 305 290 260
249 322 298 259
189 259 253 260
129 206 223 247
0 36 61 96
0 0 0 0
0 0 0 0
0 0 0 0
0 0 0 0
0 0 0 0
0 0 0 0
8 0 0 0
17 1 0 0
26 16 9 1
59 76 94 126
126 137 130 130
192 243 246 248
257 313 299 269
250 307 279 255
196 258 253 253
121 162 156 134
0 0 0 0
0 0 0 0
0 0 0 0
0 0 0 0
0 0 0 0
0 0 0 0
0 0 0 0
6 0 0 0
12 2 0 0
30 24 20 20
69 90 115 128
133 153 149 137
198 257 245 248
252 315 289 257
233 314 278 245
178 254 248 248
88 154 143 127
0 0 0 0
0 0 0 0
0 0 0 0
0 0 0 0
0 0 0 0
0 0 0 0
0 0 0 0
10 0 0 0
23 10 3 0
43 46 53 65
92 127 125 132
152 195 212 231
230 299 267 264
254 313 288 258
213 283 256 246
148 209 240 250
26 84 126 126
0 0 0 0
0 0 0 0
0 0 0 0
0 0 0 0
0 0 0 0
0 0 0 0
2 0 0 0
11 0 0 0
25 16 8 2
50 61 69 91
114 132 131 135
182 230 246 251
252 333 319 288
251 312 298 254
192 257 255 239
129 189 196 202
0 24 41 53
0 0 0 0
0 0 0 0
0 0 0 0
0 0 0 0
0 0 0 0
0 0 0 0
1 0 0 0
17 4 0 0
28 22 14 6
68 83 108 113
133 149 147 133
198 252 251 247
252 312 289 254
235 313 279 246
178 252 250 248
100 169 153 137
0 0 0 0
0 0 0 0
0 0 0 0
0 0 0 0
0 0 0 0
0 0 0 0
0 0 0 0
9 0 0 0
22 9 2 0
38 34 32 29
89 120 136 129
142 176 184 190
221 283 254 259
251 327 296 255
219 300 261 249
152 230 253 252
42 116 128 133
0 0 0 0
0 0 0 0
0 0 0 0
0 0 0 0
0 0 0 0
0 0 0 0
1 0 0 0
10 0 0 0
22 17 7 2
51 58 70 88
114 129 139 131
180 228 252 250
253 313 297 261
251 331 311 267
195 268 261 248
125 191 201 209
0 24 40 53
0 0 0 0
0 0 0 0
0 0 0 0
0 0 0 0
0 0 0 0
0 0 0 0
7 0 0 0
17 4 0 0
32 29 23 22
72 92 118 131
129 155 150 138
198 258 249 257
251 313 291 259
228 302 264 248
177 251 241 247
90 155 138 128
0 0 0 0
0 0 0 0
0 0 0 0
0 0 0 0
0 0 0 0
0 0 0 0
0 0 0 0
8 0 0 0
22 11 1 0
41 42 46 56
92 127 134 128
149 187 202 212
228 292 262 255
252 333 310 271
219 302 261 257
158 235 253 233
44 122 138 130
0 0 0 0
0 0 0 0
0 0 0 0
0 0 0 0
0 0 0 0
0 0 0 0
1 0 0 0
14 2 0 0
21 9 1 0
51 56 70 87
118 130 132 131
172 215 234 251
254 307 291 260
254 302 279 259
190 254 261 256
131 178 186 189
0 23 34 44
0 0 0 0
0 0 0 0
0 0 0 0
0 0 0 0
0 0 0 0
0 0 0 0
2 0 0 0
13 4 0 0
29 20 16 13
68 94 118 135
135 159 158 152
203 253 251 254
253 302 274 265
232 301 262 249
181 254 248 248
95 159 154 132
0 0 0 0
0 0 0 0
0 0 0 0
0 0 0 0
0 0 0 0
0 0 0 0
0 0 0 0
10 0 0 0
15 4 0 0
40 35 41 45
90 122 133 132
148 186 197 212
220 283 256 254
251 326 296 258
216 295 254 256
158 234 257 242
49 121 140 132
0 0 0 0
0 0 0 0
0 0 0 0
0 0 0 0
0 0 0 0
0 0 0 0
2 0 0 0
8 0 0 0
21 4 1 0
42 43 42 47
104 132 128 127
165 210 236 224
248 323 309 269
254 315 301 256
199 263 256 238
133 180 191 193
10 38 63 86
0 0 0 0
0 0 0 0
0 0 0 0
0 0 0 0
0 0 0 0
0 0 0 0
2 0 0 0
14 2 0 0
19 11 1 0
59 70 85 119
130 139 135 134
187 237 258 241
257 312 299 266
244 302 270 253
194 255 255 247
128 171 169 157
0 5 0 0
0 0 0 0
0 0 0 0
0 0 0 0
0 0 0 0
0 0 0 0
0 0 0 0
5 0 0 0
10 1 0 0
27 17 12 4
66 84 107 117
133 149 150 142
194 254 252 252
253 333 312 277
237 321 293 258
186 258 246 255
111 182 178 165
0 1 0 0
0 0 0 0
0 0 0 0
0 0 0 0
0 0 0 0
0 0 0 0
0 0 0 0
6 0 0 0
17 5 0 0
29 25 20 18
81 110 128 130
136 171 175 171
215 269 263 248
253 302 283 257
219 284 254 251
165 235 255 252
60 129 134 133
0 0 0 0
0 0 0 0
0 0 0 0
0 0 0 0
0 0 0 0
0 0 0 0
1 0 0 0
9 0 0 0
22 9 3 0
45 49 51 65
101 131 127 127
158 201 216 239
246 300 275 248
256 311 283 256
211 272 255 241
136 188 201 214
16 55 89 130
0 0 0 0
0 0 0 0
0 0 0 0
0 0 0 0
0 0 0 0
0 0 0 0
5 0 0 0
10 0 0 0
26 21 14 8
60 74 95 124
128 145 134 151
186 242 257 247
253 318 303 269
245 305 274 254
190 252 255 256
123 173 167 157
0 0 0 0
0 0 0 0
0 0 0 0
0 0 0 0
0 0 0 0
0 0 0 0
0 0 0 0
3 0 0 0
15 4 0 0
26 20 12 2
69 90 118 125
132 150 151 133
194 256 245 248
253 312 299 261
237 318 285 251
176 256 244 252
91 163 145 131
0 0 0 0
0 0 0 0
0 0 0 0
0 0 0 0
0 0 0 0
0 0 0 0
0 0 0 0
7 0 0 0
17 6 1 0
32 25 22 14
77 106 126 129
133 166 165 161
206 262 248 250
251 305 281 253
223 292 260 262
162 233 252 228
58 123 132 133
0 0 0 0
0 0 0 0
0 0 0 0
0 0 0 0
0 0 0 0
0 0 0 0
1 0 0 0
8 0 0 0
21 9 1 0
46 45 50 63
102 130 135 130
164 203 231 253
245 313 296 266
255 314 296 262
207 272 254 242
136 186 203 204
9 46 74 104
0 0 0 0
0 0 0 0
0 0 0 0
0 0 0 0
0 0 0 0
0 0 0 0
1 0 0 0
11 0 0 0
25 14 9 1
49 54 67 81
120 133 131 134
181 229 252 253
252 331 316 285
250 321 302 261
206 271 260 242
137 183 198 208
0 19 29 40
0 0 0 0
0 0 0 0
0 0 0 0
0 0 0 0
0 0 0 0
0 0 0 0
5 0 0 0
13 1 0 0
25 16 7 1
65 77 99 129
128 145 138 135
194 250 241 254
256 320 301 266
243 301 265 258
187 258 243 249
119 193 193 184
0 7 7 0
0 0 0 0
0 0 0 0
0 0 0 0
0 0 0 0
0 0 0 0
0 0 0 0
1 0 0 0
13 2 0 0
33 23 24 21
73 94 121 118
136 167 167 166
207 257 253 253
253 304 279 260
229 301 259 252
173 249 256 244
88 152 140 129
0 0 0 0
0 0 0 0
0 0 0 0
0 0 0 0
0 0 0 0
0 0 0 0
0 0 0 0
9 0 0 0
21 11 2 0
43 44 50 58
92 124 122 126
148 187 200 212
230 297 262 254
252 332 303 260
214 291 259 252
153 232 248 225
40 113 135 137
0 0 0 0
0 0 0 0
0 0 0 0
0 0 0 0
0 0 0 0
0 0 0 0
1 0 0 0
12 2 0 0
26 19 15 8
54 69 88 115
127 139 137 130
183 235 252 229
252 315 303 264
241 296 262 257
187 257 248 242
123 197 208 217
0 17 31 38
0 0 0 0
0 0 0 0
0 0 0 0
0 0 0 0
0 0 0 0
0 0 0 0
8 0 0 0
16 3 0 0
35 33 32 37
83 113 131 124
147 187 204 218
216 283 255 257
252 326 302 264
213 292 254 250
159 234 254 228
43 114 129 130
0 0 0 0
0 0 0 0
0 0 0 0
0 0 0 0
0 0 0 0
0 0 0 0
2 0 0 0
12 0 0 0
16 8 0 0
50 55 61 78
111 135 137 141
171 211 233 246
254 302 288 254
249 325 298 257
197 263 261 238
133 183 193 198
0 23 35 44
0 0 0 0
0 0 0 0
0 0 0 0
0 0 0 0
0 0 0 0
0 0 0 0
4 0 0 0
9 0 0 0
24 13 4 0
55 64 78 105
118 141 131 133
178 232 251 235
253 315 301 266
249 311 288 255
198 259 250 253
130 185 190 190
0 16 24 29
0 0 0 0
0 0 0 0
0 0 0 0
0 0 0 0
0 0 0 0
0 0 0 0
3 0 0 0
17 5 0 0
34 30 30 31
77 110 134 128
133 168 173 169
209 263 256 249
257 307 288 253
225 297 259 243
165 243 245 237
58 129 141 128
0 0 0 0
0 0 0 0
0 0 0 0
0 0 0 0
0 0 0 0
0 0 0 0
1 0 0 0
14 1 0 0
15 7 0 0
43 49 51 65
98 131 132 132
159 199 217 239
241 289 265 254
255 302 274 264
210 271 254 253
136 185 202 203
10 50 77 113
0 0 0 0
0 0 0 0
0 0 0 0
0 0 0 0
0 0 0 0
0 0 0 0
4 0 0 0
11 0 0 0
19 9 1 0
47 50 53 66
116 133 136 138
172 214 236 249
251 306 292 260
251 328 309 269
189 262 251 237
130 195 208 219
1 33 57 84
0 0 0 0
0 0 0 0
0 0 0 0
0 0 0 0
0 0 0 0
0 0 0 0
7 0 0 0
9 1 0 0
27 20 12 4
64 79 103 128
125 159 153 134
186 250 253 246
250 313 301 266
239 319 291 255
185 257 253 254
114 163 155 136
0 0 0 0
0 0 0 0
0 0 0 0
0 0 0 0
0 0 0 0
0 0 0 0
0 0 0 0
3 0 0 0
13 4 0 0
26 22 12 7
73 96 120 117
135 165 165 163
202 256 255 263
253 308 286 262
233 308 266 253
171 249 255 231
89 152 141 129
0 0 0 0
0 0 0 0
0 0 0 0
0 0 0 0
0 0 0 0
0 0 0 0
0 0 0 0
3 0 0 0
19 8 0 0
36 33 28 27
88 121 128 132
141 185 195 202
216 280 260 259
249 327 297 257
216 295 255 257
157 238 258 249
51 127 131 128
0 0 0 0
0 0 0 0
0 0 0 0
0 0 0 0
0 0 0 0
0 0 0 0
3 0 0 0
14 3 0 0
18 7 0 0
49 51 59 78
108 134 133 140
169 214 231 250
249 321 307 267
254 340 329 287
199 275 255 249
134 193 209 220
3 39 66 97
0 0 0 0
0 0 0 0
0 0 0 0
0 0 0 0
0 0 0 0
0 0 0 0
3 0 0 0
9 0 0 0
19 7 0 0
50 55 61 76
109 129 132 129
169 206 229 251
247 318 301 268
252 312 292 253
193 261 255 258
133 188 203 218
2 34 58 86
0 0 0 0
0 0 0 0
0 0 0 0
0 0 0 0
0 0 0 0
0 0 0 0
4 0 0 0
9 0 0 0
22 15 6 2
49 54 63 81
115 127 134 133
181 223 243 249
254 310 293 258
250 328 308 266
194 263 262 240
127 176 179 174
0 12 18 10
0 0 0 0
0 0 0 0
0 0 0 0
0 0 0 0
0 0 0 0
0 0 0 0
3 0 0 0
16 5 0 0
28 20 13 2
69 90 116 121
132 150 152 135
195 253 256 251
252 313 294 259
236 316 285 253
182 254 251 258
102 178 167 153
0 0 0 0
0 0 0 0
0 0 0 0
0 0 0 0
0 0 0 0
0 0 0 0
0 0 0 0
6 0 0 0
17 7 0 0
35 31 29 26
81 112 125 131
136 174 179 179
218 281 257 250
251 322 297 259
216 293 253 257
154 228 249 252
46 115 127 128
0 0 0 0
0 0 0 0
0 0 0 0
0 0 0 0
0 0 0 0
0 0 0 0
0 0 0 0
8 0 0 0
14 4 0 0
41 45 49 61
97 129 130 127
151 186 197 204
237 309 273 265
253 335 308 269
202 277 258 243
131 218 246 233
10 69 117 134
0 0 0 0
0 0 0 0
0 0 0 0
0 0 0 0
0 0 0 0
0 0 0 0
3 0 0 0
10 0 0 0
28 20 17 15
68 84 111 117
134 157 160 149
198 256 251 259
252 314 296 266
235 313 281 249
175 252 250 248
92 158 142 136
0 0 0 0
0 0 0 0
0 0 0 0
0 0 0 0
0 0 0 0
0 0 0 0
0 0 0 0
7 0 0 0
11 1 0 0
31 25 19 15
73 100 128 124
134 166 173 168
216 268 265 247
250 327 309 267
218 300 262 253
159 235 247 249
56 129 131 127
0 0 0 0
0 0 0 0
0 0 0 0
0 0 0 0
0 0 0 0
0 0 0 0
2 0 0 0
9 0 0 0
15 1 0 0
43 44 44 59
97 125 131 128
156 193 206 227
245 289 268 258
256 301 276 248
211 266 258 263
136 189 199 215
12 52 84 118
0 0 0 0
0 0 0 0
0 0 0 0
0 0 0 0
0 0 0 0
0 0 0 0
4 0 0 0
16 1 0 0
28 20 16 6
60 71 92 116
131 143 138 141
192 245 249 249
253 313 298 269
248 305 279 254
193 259 252 252
128 171 172 160
0 3 0 0
0 0 0 0
0 0 0 0
0 0 0 0
0 0 0 0
0 0 0 0
0 0 0 0
1 0 0 0
13 2 0 0
27 20 17 8
68 86 117 123
134 152 157 145
195 254 253 247
252 334 311 274
233 320 293 263
181 257 256 255
105 173 165 153
0 0 0 0
0 0 0 0
0 0 0 0
0 0 0 0
0 0 0 0
0 0 0 0
0 0 0 0
8 0 0 0
13 1 0 0
30 25 18 11
76 103 130 126
136 167 175 173
213 271 251 252
254 302 279 258
218 283 255 251
160 231 247 255
53 124 138 126
0 0 0 0
0 0 0 0
0 0 0 0
0 0 0 0
0 0 0 0
0 0 0 0
3 0 0 0
10 0 0 0
23 15 4 0
54 60 70 94
112 132 132 130
176 222 241 246
252 327 308 266
251 314 302 264
192 257 255 256
128 198 210 215
0 39 67 97
0 0 0 0
0 0 0 0
0 0 0 0
0 0 0 0
0 0 0 0
0 0 0 0
1 0 0 0
14 3 0 0
25 23 17 14
61 83 104 132
134 152 155 143
197 253 254 252
256 313 297 261
236 318 284 253
173 253 255 247
92 161 145 131
0 0 0 0
0 0 0 0
0 0 0 0
0 0 0 0
0 0 0 0
0 0 0 0
0 0 0 0
8 0 0 0
13 2 0 0
27 24 13 9
74 97 126 119
134 163 167 159
207 256 255 247
252 308 288 254
228 300 263 248
176 249 255 247
89 148 137 130
0 0 0 0
0 0 0 0
0 0 0 0
0 0 0 0
0 0 0 0
0 0 0 0
0 0 0 0
2 0 0 0
17 4 0 0
31 26 24 19
82 109 131 115
140 176 179 177
222 283 254 253
254 305 274 256
218 287 250 255
158 230 252 247
52 120 135 138
0 0 0 0
0 0 0 0
0 0 0 0
0 0 0 0
0 0 0 0
0 0 0 0
1 0 0 0
8 0 0 0
15 6 0 0
44 49 56 72
101 128 132 131
162 205 219 247
249 300 274 273
253 305 273 267
200 259 249 262
137 198 213 237
13 53 85 129
0 0 0 0
0 0 0 0
0 0 0 0
0 0 0 0
0 0 0 0
0 0 0 0
5 0 0 0
17 4 0 0
31 28 21 21
72 92 118 131
129 155 152 140
201 253 250 254
252 314 292 260
236 313 278 252
172 253 257 250
90 155 142 133
0 0 0 0
0 0 0 0
0 0 0 0
0 0 0 0
0 0 0 0
0 0 0 0
0 0 0 0
4 0 0 0
20 6 0 0
34 27 26 24
80 108 129 135
134 173 172 177
212 266 259 248
250 317 298 261
220 295 257 243
160 240 262 246
47 125 132 126
0 0 0 0
0 0 0 0
0 0 0 0
0 0 0 0
0 0 0 0
0 0 0 0
1 0 0 0
9 0 0 0
23 8 4 0
42 41 43 50
101 129 129 129
161 201 220 243
247 296 272 270
255 305 270 261
203 259 255 249
130 196 211 231
5 49 81 122
0 0 0 0
0 0 0 0
0 0 0 0
0 0 0 0
0 0 0 0
0 0 0 0
2 0 0 0
9 0 0 0
19 7 0 0
47 51 60 75
105 129 124 133
172 220 242 244
251 329 323 295
250 316 307 264
199 263 257 232
138 181 195 198
2 31 51 67
0 0 0 0
0 0 0 0
0 0 0 0
0 0 0 0
0 0 0 0
0 0 0 0
3 0 0 0
11 0 0 0
26 19 14 8
57 69 92 116
129 143 136 135
189 245 248 241
257 312 297 255
243 296 263 256
187 258 248 245
120 194 203 198
0 7 11 5
0 0 0 0
0 0 0 0
0 0 0 0
0 0 0 0
0 0 0 0
0 0 0 0
1 0 0 0
17 4 0 0
34 30 29 29
80 106 128 130
135 167 168 162
209 263 262 246
251 319 298 263
224 302 265 247
167 250 246 237
68 131 143 128
0 0 0 0
0 0 0 0
0 0 0 0
0 0 0 0
0 0 0 0
0 0 0 0
1 0 0 0
6 0 0 0
16 11 0 0
35 37 36 42
98 126 134 128
151 186 197 202
233 302 264 259
254 310 280 257
211 275 247 259
138 197 215 231
13 58 94 130
0 0 0 0
0 0 0 0
0 0 0 0
0 0 0 0
0 0 0 0
0 0 0 0
0 0 0 0
10 0 0 0
24 14 10 2
63 76 96 129
126 140 135 140
187 242 255 243
256 313 300 260
244 298 268 259
198 254 255 256
128 167 167 157
0 0 0 0
0 0 0 0
0 0 0 0
0 0 0 0
0 0 0 0
0 0 0 0
0 0 0 0
1 0 0 0
16 3 0 0
27 22 18 15
73 97 124 120
133 161 164 156
203 255 256 254
251 305 283 258
230 302 262 245
178 254 250 248
93 161 158 137
0 0 0 0
0 0 0 0
0 0 0 0
0 0 0 0
0 0 0 0
0 0 0 0
0 0 0 0
3 0 0 0
16 5 0 0
29 23 14 9
76 100 129 124
135 166 173 177
204 255 257 258
250 322 302 264
219 299 266 246
167 249 247 258
69 133 139 129
0 0 0 0
0 0 0 0
0 0 0 0
0 0 0 0
0 0 0 0
0 0 0 0
1 0 0 0
6 0 0 0
22 7 2 0
44 46 51 60
94 127 134 134
153 192 209 226
234 303 273 259
255 306 279 258
212 276 249 250
144 203 228 248
33 85 129 135
0 0 0 0
0 0 0 0
0 0 0 0
0 0 0 0
0 0 0 0
0 0 0 0
4 0 0 0
16 2 0 0
24 20 12 7
57 69 88 121
128 139 138 141
186 239 257 246
254 309 286 259
250 307 275 256
191 255 247 250
127 182 186 180
0 3 4 0
0 0 0 0
0 0 0 0
0 0 0 0
0 0 0 0
0 0 0 0
0 0 0 0
2 0 0 0
13 3 0 0
27 23 18 15
74 92 119 136
133 152 147 132
197 254 248 241
252 313 299 261
236 310 274 261
175 252 241 237
98 167 162 138
0 0 0 0
0 0 0 0
0 0 0 0
0 0 0 0
0 0 0 0
0 0 0 0
0 0 0 0
7 0 0 0
21 7 0 0
34 26 26 23
84 115 116 138
143 181 189 199
214 271 255 253
251 325 304 263
219 295 258 247
158 237 260 246
58 129 147 130
0 0 0 0
0 0 0 0
0 0 0 0
0 0 0 0
0 0 0 0
0 0 0 0
1 0 0 0
9 0 0 0
15 3 0 0
42 46 48 57
96 123 131 125
156 195 209 236
238 305 274 265
256 309 281 258
212 278 257 248
144 209 233 249
20 69 115 130
0 0 0 0
0 0 0 0
0 0 0 0
0 0 0 0
0 0 0 0
0 0 0 0
4 0 0 0
11 0 0 0
26 12 6 0
57 63 77 98
120 144 137 132
177 233 252 238
254 315 308 272
244 324 307 259
187 261 250 237
126 182 191 191
0 17 26 28
0 0 0 0
0 0 0 0
0 0 0 0
0 0 0 0
0 0 0 0
0 0 0 0
3 0 0 0
16 5 0 0
32 25 23 14
81 108 129 134
139 175 181 185
214 271 254 248
254 303 280 248
225 296 262 248
162 238 257 240
63 132 131 133
0 0 0 0
0 0 0 0
0 0 0 0
0 0 0 0
0 0 0 0
0 0 0 0
1 0 0 0
7 0 0 0
20 6 1 0
43 47 52 64
96 123 142 128
159 194 217 232
238 284 261 248
254 301 269 255
213 268 261 255
141 197 216 244
19 65 107 132
0 0 0 0
0 0 0 0
0 0 0 0
0 0 0 0
0 0 0 0
0 0 0 0
2 0 0 0
16 1 0 0
23 11 3 0
59 69 82 111
121 149 128 142
182 241 257 246
257 313 300 269
246 323 298 255
179 257 256 250
119 193 197 202
0 13 19 15
0 0 0 0
0 0 0 0
0 0 0 0
0 0 0 0
0 0 0 0
0 0 0 0
6 0 0 0
17 5 0 0
32 27 23 19
80 104 126 127
143 177 184 186
216 268 265 256
253 297 274 267
225 289 257 253
164 229 254 248
53 125 129 132
0 0 0 0
0 0 0 0
0 0 0 0
0 0 0 0
0 0 0 0
0 0 0 0
2 0 0 0
8 0 0 0
21 11 4 0
50 50 63 80
105 130 128 131
165 213 229 248
251 324 310 270
251 316 301 258
198 263 252 240
134 196 217 233
6 42 74 111
0 0 0 0
0 0 0 0
0 0 0 0
0 0 0 0
0 0 0 0
0 0 0 0
2 0 0 0
16 4 0 0
23 13 8 1
53 65 76 101
122 154 135 151
180 239 254 240
252 316 304 269
247 306 281 253
190 252 260 248
122 170 175 173
0 1 1 0
0 0 0 0
0 0 0 0
0 0 0 0
0 0 0 0
0 0 0 0
0 0 0 0
1 0 0 0
12 3 0 0
28 21 16 12
73 92 118 130
134 157 159 153
203 253 255 254
252 306 289 254
230 306 264 257
173 251 256 237
89 155 144 137
0 0 0 0
0 0 0 0
0 0 0 0
0 0 0 0
0 0 0 0
0 0 0 0
0 0 0 0
7 0 0 0
21 5 1 0
33 29 24 19
81 114 137 127
136 172 175 178
212 271 254 251
251 323 300 259
216 292 263 243
164 240 258 248
59 129 135 137
0 0 0 0
0 0 0 0
0 0 0 0
0 0 0 0
0 0 0 0
0 0 0 0
1 0 0 0
9 0 0 0
15 4 0 0
43 45 49 59
96 123 138 128
159 197 213 239
235 306 277 256
252 314 289 254
205 268 253 260
142 201 221 241
19 62 109 116
0 0 0 0
0 0 0 0
0 0 0 0
0 0 0 0
0 0 0 0
0 0 0 0
1 0 0 0
15 1 0 0
26 23 17 14
72 91 117 128
136 157 156 146
201 255 254 239
254 333 317 281
233 321 293 258
180 255 252 248
96 160 142 134
0 0 0 0
0 0 0 0
0 0 0 0
0 0 0 0
0 0 0 0
0 0 0 0
0 0 0 0
8 0 0 0
14 1 0 0
30 24 17 9
74 98 124 120
135 165 167 160
207 260 251 252
255 307 283 256
231 302 265 250
170 250 261 247
85 150 139 127
0 0 0 0
0 0 0 0
0 0 0 0
0 0 0 0
0 0 0 0
0 0 0 0
0 0 0 0
9 0 0 0
22 8 0 0
33 31 26 26
89 122 128 133
142 184 196 205
217 280 262 261
251 304 279 257
220 288 249 254
160 232 249 255
52 123 141 131
0 0 0 0
0 0 0 0
0 0 0 0
0 0 0 0
0 0 0 0
0 0 0 0
2 0 0 0
9 0 0 0
17 3 0 0
44 45 49 60
99 129 133 129
160 199 217 238
242 287 261 261
254 299 266 262
207 262 255 251
136 185 198 209
13 53 83 120
0 0 0 0
0 0 0 0
0 0 0 0
0 0 0 0
0 0 0 0
0 0 0 0
1 0 0 0
9 1 0 0
15 6 0 0
47 53 59 76
109 127 131 132
174 212 240 231
251 322 309 268
251 332 316 266
196 266 261 234
133 185 199 206
3 31 51 72
0 0 0 0
0 0 0 0
0 0 0 0
0 0 0 0
0 0 0 0
0 0 0 0
3 0 0 0
10 1 0 0
25 19 15 10
68 80 108 115
132 142 139 134
194 250 259 246
253 311 299 261
233 310 271 259
182 255 245 247
105 175 167 148
0 0 0 0
0 0 0 0
0 0 0 0
0 0 0 0
0 0 0 0
0 0 0 0
0 0 0 0
4 0 0 0
17 6 0 0
32 30 27 21
83 117 121 131
138 178 185 187
210 271 251 257
248 328 306 267
213 289 259 258
155 233 251 231
50 122 143 130
0 0 0 0
0 0 0 0
0 0 0 0
0 0 0 0
0 0 0 0
0 0 0 0
2 0 0 0
12 1 0 0
22 14 5 0
47 52 57 70
112 129 136 131
169 214 231 254
253 304 289 259
249 321 298 259
188 260 253 261
125 200 213 225
0 38 65 99
0 0 0 0
0 0 0 0
0 0 0 0
0 0 0 0
0 0 0 0
0 0 0 0
1 0 0 0
15 2 0 0
28 23 17 16
74 93 120 118
134 161 163 159
198 254 255 252
252 326 307 264
233 312 281 248
180 255 252 254
92 161 143 127
0 0 0 0
0 0 0 0
0 0 0 0
0 0 0 0
0 0 0 0
0 0 0 0
0 0 0 0
9 0 0 0
20 9 2 0
32 30 24 24
82 116 119 131
142 183 191 201
218 283 253 261
251 327 298 259
215 295 263 246
157 236 256 236
57 127 141 130
0 0 0 0
0 0 0 0
0 0 0 0
0 0 0 0
0 0 0 0
0 0 0 0
1 0 0 0
6 0 0 0
22 11 2 0
45 53 60 75
102 132 126 133
160 209 221 246
246 320 302 265
248 335 320 275
200 273 261 246
130 188 204 205
1 37 56 82
0 0 0 0
0 0 0 0
0 0 0 0
0 0 0 0
0 0 0 0
0 0 0 0
0 0 0 0
11 0 0 0
18 8 0 0
49 55 61 79
113 126 132 133
172 211 229 253
252 330 309 288
250 321 302 261
208 273 251 242
130 182 191 190
1 30 46 59
0 0 0 0
0 0 0 0
0 0 0 0
0 0 0 0
0 0 0 0
0 0 0 0
7 0 0 0
17 2 0 0
28 24 19 16
72 97 122 118
138 163 164 157
205 256 257 254
252 307 287 255
235 308 272 261
175 257 240 236
95 166 158 136
0 0 0 0
0 0 0 0
0 0 0 0
0 0 0 0
0 0 0 0
0 0 0 0
0 0 0 0
2 0 0 0
16 4 0 0
32 30 29 29
76 103 127 123
135 167 174 175
214 267 261 254
251 318 295 253
225 300 268 247
166 245 256 239
58 124 131 128
0 0 0 0
0 0 0 0
0 0 0 0
0 0 0 0
0 0 0 0
0 0 0 0
1 0 0 0
13 0 0 0
19 5 0 0
46 49 53 65
103 128 132 129
162 201 215 240
246 297 268 267
255 301 269 261
203 262 251 262
134 200 217 241
8 46 77 116
0 0 0 0
0 0 0 0
0 0 0 0
0 0 0 0
0 0 0 0
0 0 0 0
4 0 0 0
17 4 0 0
20 13 1 1
56 68 84 112
127 131 149 135
177 220 244 252
251 308 287 257
247 304 273 254
198 255 253 254
130 176 174 172
0 6 5 0
0 0 0 0
0 0 0 0
0 0 0 0
0 0 0 0
0 0 0 0
0 0 0 0
3 0 0 0
16 3 0 0
29 24 19 17
73 96 124 118
132 159 159 153
202 250 256 252
252 326 312 271
231 314 284 249
183 254 249 252
93 157 137 129
0 0 0 0
0 0 0 0
0 0 0 0
0 0 0 0
0 0 0 0
0 0 0 0
0 0 0 0
8 0 0 0
21 8 1 0
32 31 26 25
83 111 127 123
141 180 189 195
213 273 259 254
254 302 284 253
219 287 261 263
166 240 257 249
66 131 135 132
0 0 0 0
0 0 0 0
0 0 0 0
0 0 0 0
0 0 0 0
0 0 0 0
0 0 0 0
8 0 0 0
16 3 0 0
41 44 47 57
98 127 137 135
151 187 201 212
237 303 271 266
255 306 277 256
216 282 258 249
142 202 227 248
23 74 115 127
0 0 0 0
0 0 0 0
0 0 0 0
0 0 0 0
0 0 0 0
0 0 0 0
2 0 0 0
8 0 0 0
20 4 1 0
46 50 57 73
112 130 128 128
175 228 248 247
254 309 291 257
250 326 303 255
200 272 254 244
128 182 190 192
1 31 50 68
0 0 0 0
0 0 0 0
0 0 0 0
0 0 0 0
0 0 0 0
0 0 0 0
4 0 0 0
12 0 0 0
25 20 8 5
53 64 76 102
125 130 142 132
176 220 247 247
252 305 297 261
247 302 274 251
199 254 252 247
125 169 163 145
0 1 0 0
0 0 0 0
0 0 0 0
0 0 0 0
0 0 0 0
0 0 0 0
0 0 0 0
3 0 0 0
11 0 0 0
29 22 15 9
61 75 95 124
128 147 137 135
187 244 240 241
253 316 304 266
243 302 273 252
195 254 256 249
116 175 177 167
0 2 3 0
0 0 0 0
0 0 0 0
0 0 0 0
0 0 0 0
0 0 0 0
0 0 0 0
5 0 0 0
10 0 0 0
31 23 22 21
76 98 127 124
136 167 170 167
206 257 252 257
253 301 276 258
227 296 258 250
178 249 255 245
86 150 141 130
0 0 0 0
0 0 0 0
0 0 0 0
0 0 0 0
0 0 0 0
0 0 0 0
0 0 0 0
6 0 0 0
17 6 0 0
30 30 25 20
81 110 131 115
143 183 193 201
217 277 257 251
252 330 304 267
218 300 266 247
159 239 256 245
51 128 131 127
0 0 0 0
0 0 0 0
0 0 0 0
0 0 0 0
0 0 0 0
0 0 0 0
3 0 0 0
10 0 0 0
21 12 4 0
54 62 74 99
118 133 128 141
176 221 248 243
252 311 301 266
254 301 283 255
194 255 250 258
128 198 210 222
0 27 47 66
0 0 0 0
0 0 0 0
0 0 0 0
0 0 0 0
0 0 0 0
0 0 0 0
2 0 0 0
16 3 0 0
27 26 19 18
73 99 123 121
132 163 166 160
201 251 258 258
252 307 284 259
233 306 266 253
171 250 251 258
92 155 148 136
0 0 0 0
0 0 0 0
0 0 0 0
0 0 0 0
0 0 0 0
0 0 0 0
0 0 0 0
2 0 0 0
17 4 0 0
32 26 23 19
83 115 119 131
143 182 192 198
215 275 255 256
251 305 277 255
224 288 254 249
161 235 253 228
51 125 129 129
0 0 0 0
0 0 0 0
0 0 0 0
0 0 0 0
0 0 0 0
0 0 0 0
1 0 0 0
6 0 0 0
23 12 3 0
49 55 63 86
105 126 130 126
169 208 232 247
253 323 311 278
252 315 301 260
199 263 254 257
132 179 185 183
4 31 48 64
0 0 0 0
0 0 0 0
0 0 0 0
0 0 0 0
0 0 0 0
0 0 0 0
2 0 0 0
16 1 0 0
26 19 15 8
59 69 90 118
132 142 137 138
186 238 259 243
255 317 309 279
248 306 279 255
194 257 254 253
121 185 184 175
0 6 4 0
0 0 0 0
0 0 0 0
0 0 0 0
0 0 0 0
0 0 0 0
0 0 0 0
3 0 0 0
15 4 0 0
25 19 9 1
58 69 87 114
129 141 134 137
191 245 248 240
256 311 297 264
243 297 265 251
189 252 247 242
124 173 179 173
0 3 4 0
0 0 0 0
0 0 0 0
0 0 0 0
0 0 0 0
0 0 0 0
0 0 0 0
4 0 0 0
11 1 0 0
23 15 8 1
56 67 86 111
125 133 145 131
188 242 255 241
252 311 295 265
239 322 291 258
190 258 250 253
119 171 165 150
0 2 0 0
0 0 0 0
0 0 0 0
0 0 0 0
0 0 0 0
0 0 0 0
0 0 0 0
1 0 0 0
15 4 0 0
23 15 7 1
61 75 95 126
128 136 128 130
191 246 246 241
252 320 303 265
241 296 262 256
186 253 261 253
119 191 194 188
0 4 3 0
0 0 0 0
0 0 0 0
0 0 0 0
0 0 0 0
0 0 0 0
0 0 0 0
1 0 0 0
17 3 0 0
33 29 24 23
73 93 123 115
130 159 156 142
202 252 259 253
251 305 283 256
228 297 259 243
169 248 246 242
86 158 149 137
0 0 0 0
0 0 0 0
0 0 0 0
0 0 0 0
0 0 0 0
0 0 0 0
0 0 0 0
6 0 0 0
20 7 0 0
37 32 31 29
89 123 133 130
141 186 196 209
217 282 254 253
253 308 280 254
219 290 259 253
155 226 248 251
49 119 137 130
0 0 0 0
0 0 0 0
0 0 0 0
0 0 0 0
0 0 0 0
0 0 0 0
1 0 0 0
14 1 0 0
22 16 5 0
49 54 63 82
119 134 136 131
183 229 255 230
253 333 318 283
254 315 302 261
198 260 256 259
125 187 192 195
0 28 45 58
0 0 0 0
0 0 0 0
0 0 0 0
0 0 0 0
0 0 0 0
0 0 0 0
6 0 0 0
12 1 0 0
24 15 9 1
63 75 99 130
126 137 127 131
189 245 245 249
253 310 296 262
246 304 273 247
189 253 248 244
121 195 205 213
0 8 14 13
0 0 0 0
0 0 0 0
0 0 0 0
0 0 0 0
0 0 0 0
0 0 0 0
8 0 0 0
18 6 0 0
30 27 25 20
83 111 136 125
144 184 194 208
216 274 261 255
252 326 308 266
218 294 262 248
155 233 254 230
53 125 133 127
0 0 0 0
0 0 0 0
0 0 0 0
0 0 0 0
0 0 0 0
0 0 0 0
2 0 0 0
10 0 0 0
22 12 5 0
53 60 73 97
111 131 136 143
176 221 249 241
251 326 315 275
250 333 319 269
194 264 255 257
124 195 207 214
0 32 54 74
0 0 0 0
0 0 0 0
0 0 0 0
0 0 0 0
0 0 0 0
0 0 0 0
2 0 0 0
15 4 0 0
25 16 8 1
55 67 85 109
127 137 153 142
184 239 255 246
255 310 288 258
245 317 288 254
185 255 253 255
119 186 187 183
0 7 5 0
0 0 0 0
0 0 0 0
0 0 0 0
0 0 0 0
0 0 0 0
0 0 0 0
5 0 0 0
10 1 0 0
27 20 16 9
63 74 97 127
129 148 141 132
199 252 258 252
252 306 286 256
238 316 278 246
190 258 253 249
115 164 154 132
0 0 0 0
0 0 0 0
0 0 0 0
0 0 0 0
0 0 0 0
0 0 0 0
0 0 0 0
7 0 0 0
10 1 0 0
25 19 8 2
59 72 90 116
129 144 132 148
198 248 254 242
253 332 313 274
239 327 302 258
190 261 247 255
117 171 169 155
0 0 0 0
0 0 0 0
0 0 0 0
0 0 0 0
0 0 0 0
0 0 0 0
0 0 0 0
4 0 0 0
13 1 0 0
26 17 9 2
60 74 94 118
130 147 137 135
193 246 249 256
253 311 295 259
237 316 281 250
179 249 253 238
106 171 169 149
0 0 0 0
0 0 0 0
0 0 0 0
0 0 0 0
0 0 0 0
0 0 0 0
0 0 0 0
8 0 0 0
18 6 0 0
28 27 16 14
73 99 127 119
134 171 177 176
215 263 256 246
254 305 282 248
230 303 268 246
169 248 248 245
78 146 134 137
0 0 0 0
0 0 0 0
0 0 0 0
0 0 0 0
0 0 0 0
0 0 0 0
0 0 0 0
10 0 0 0
21 8 1 0
38 39 37 36
94 125 126 123
148 188 197 205
231 300 262 259
252 313 281 255
212 283 259 249
149 211 242 227
31 88 128 134
0 0 0 0
0 0 0 0
0 0 0 0
0 0 0 0
0 0 0 0
0 0 0 0
4 0 0 0
15 3 0 0
26 20 17 9
66 80 107 118
128 150 142 132
199 249 254 240
255 315 301 266
245 302 270 255
192 254 247 252
114 169 159 141
0 0 0 0
0 0 0 0
0 0 0 0
0 0 0 0
0 0 0 0
0 0 0 0
0 0 0 0
9 0 0 0
19 6 0 0
35 32 29 29
76 102 125 127
138 171 183 191
206 261 255 246
250 308 288 259
225 298 262 251
162 240 260 244
71 134 134 135
0 0 0 0
0 0 0 0
0 0 0 0
0 0 0 0
0 0 0 0
0 0 0 0
0 0 0 0
10 0 0 0
19 11 4 0
47 52 62 80
103 132 130 142
165 214 233 252
251 324 312 279
254 316 299 259
201 267 259 241
133 185 198 203
8 42 68 97
0 0 0 0
0 0 0 0
0 0 0 0
0 0 0 0
0 0 0 0
0 0 0 0
0 0 0 0
11 0 0 0
25 17 6 2
56 67 81 110
119 145 131 134
177 232 250 237
255 308 292 265
247 305 273 258
195 256 257 247
130 175 173 160
0 8 4 0
0 0 0 0
0 0 0 0
0 0 0 0
0 0 0 0
0 0 0 0
0 0 0 0
2 0 0 0
8 0 0 0
16 6 0 0
44 50 53 69
104 130 128 126
162 206 227 246
248 321 305 268
251 340 328 287
199 278 248 251
131 187 190 195
3 37 58 78
0 0 0 0
0 0 0 0
0 0 0 0
0 0 0 0
0 0 0 0
0 0 0 0
1 0 0 0
13 2 0 0
24 15 11 3
57 69 84 113
128 138 136 138
187 239 259 253
253 316 298 261
247 307 279 246
197 258 252 256
121 182 178 166
0 8 6 0
0 0 0 0
0 0 0 0
0 0 0 0
0 0 0 0
0 0 0 0
0 0 0 0
3 0 0 0
10 0 0 0
27 20 16 15
68 83 112 116
133 148 145 132
198 254 247 246
252 310 295 262
237 316 281 250
173 251 260 255
92 158 143 130
0 0 0 0
0 0 0 0
0 0 0 0
0 0 0 0
0 0 0 0
0 0 0 0
0 0 0 0
2 0 0 0
17 6 0 0
28 27 20 16
77 101 131 130
137 173 185 194
215 273 258 260
253 329 312 277
219 302 263 262
164 242 255 250
59 128 134 133
0 0 0 0
0 0 0 0
0 0 0 0
0 0 0 0
0 0 0 0
0 0 0 0
2 0 0 0
10 0 0 0
23 14 6 0
52 60 73 96
114 127 140 135
176 222 249 248
250 330 319 287
248 333 318 279
195 270 253 246
132 183 197 208
0 23 40 52
0 0 0 0
0 0 0 0
0 0 0 0
0 0 0 0
0 0 0 0
0 0 0 0
3 0 0 0
9 0 0 0
19 8 1 0
43 47 49 54
114 129 135 129
177 219 242 249
251 304 283 256
249 331 305 262
195 263 261 241
125 194 203 208
0 34 58 80
0 0 0 0
0 0 0 0
0 0 0 0
0 0 0 0
0 0 0 0
0 0 0 0
1 0 0 0
17 1 0 0
29 23 20 20
72 93 120 128
134 156 152 140
203 252 256 250
251 326 310 272
230 313 282 246
177 255 250 251
97 167 155 134
0 0 0 0
0 0 0 0
0 0 0 0
0 0 0 0
0 0 0 0
0 0 0 0
0 0 0 0
7 0 0 0
12 2 0 0
32 29 29 34
84 111 127 124
136 171 175 175
214 272 254 252
253 304 277 254
219 290 254 252
161 234 253 231
60 130 135 131
0 0 0 0
0 0 0 0
0 0 0 0
0 0 0 0
0 0 0 0
0 0 0 0
1 0 0 0
9 1 0 0
21 11 1 0
45 53 60 74
107 133 133 130
170 214 242 232
248 326 314 282
249 314 301 260
199 263 255 248
134 186 202 205
9 42 69 101
0 0 0 0
0 0 0 0
0 0 0 0
0 0 0 0
0 0 0 0
0 0 0 0
5 0 0 0
18 4 0 0
26 24 19 16
65 84 110 117
132 146 145 133
196 254 262 256
251 331 311 279
239 328 300 256
182 258 258 254
96 161 149 134
0 0 0 0
0 0 0 0
0 0 0 0
0 0 0 0
0 0 0 0
0 0 0 0
0 0 0 0
3 0 0 0
17 4 0 0
27 24 15 12
75 97 125 116
133 164 165 151
206 258 251 256
251 326 303 265
226 305 269 250
165 245 254 250
70 127 132 132
0 0 0 0
0 0 0 0
0 0 0 0
0 0 0 0
0 0 0 0
0 0 0 0
0 0 0 0
10 0 0 0
15 6 0 0
42 44 47 57
97 130 137 136
152 190 203 217
230 299 261 261
252 313 284 252
210 275 246 258
138 197 215 239
21 78 118 130
0 0 0 0
0 0 0 0
0 0 0 0
0 0 0 0
0 0 0 0
0 0 0 0
0 0 0 0
8 0 0 0
21 12 4 0
51 60 74 97
113 127 136 143
174 213 236 252
252 305 289 259
249 326 303 263
194 260 259 255
123 186 192 189
0 24 42 51
0 0 0 0
0 0 0 0
0 0 0 0
0 0 0 0
0 0 0 0
0 0 0 0
3 0 0 0
20 4 0 0
27 20 13 3
69 87 115 120
132 147 146 131
197 252 249 252
254 312 298 265
234 315 283 254
183 252 261 246
99 160 157 133
0 0 0 0
0 0 0 0
0 0 0 0
0 0 0 0
0 0 0 0
0 0 0 0
0 0 0 0
6 0 0 0
12 1 0 0
29 19 12 5
73 92 118 129
131 158 156 147
204 254 252 254
252 306 283 256
233 307 266 257
178 252 243 243
86 150 132 138
0 0 0 0
0 0 0 0
0 0 0 0
0 0 0 0
0 0 0 0
0 0 0 0
0 0 0 0
5 0 0 0
21 8 1 0
36 28 26 24
85 112 136 121
146 186 199 211
224 288 257 253
252 312 285 254
219 291 258 250
153 227 245 248
52 122 138 127
0 0 0 0
0 0 0 0
0 0 0 0
0 0 0 0
0 0 0 0
0 0 0 0
4 0 0 0
16 2 0 0
23 19 11 4
53 65 80 105
117 144 134 133
179 234 254 242
254 316 309 279
246 322 304 260
186 258 248 259
119 189 193 195
0 17 32 35
0 0 0 0
0 0 0 0
0 0 0 0
0 0 0 0
0 0 0 0
0 0 0 0
2 0 0 0
17 2 0 0
33 31 31 35
78 108 127 125
135 171 171 167
212 271 250 248
250 319 294 260
224 302 267 248
166 247 245 250
62 131 132 126
0 0 0 0
0 0 0 0
0 0 0 0
0 0 0 0
0 0 0 0
0 0 0 0
0 0 0 0
12 0 0 0
19 5 0 0
45 49 57 68
103 129 131 130
162 204 216 245
247 320 302 271
251 333 314 263
197 268 261 239
136 194 215 233
8 42 71 109
0 0 0 0
0 0 0 0
0 0 0 0
0 0 0 0
0 0 0 0
0 0 0 0
0 0 0 0
11 0 0 0
19 8 1 0
46 52 54 69
117 135 128 136
180 223 244 252
252 311 294 261
251 331 309 265
193 262 261 232
126 193 205 209
0 23 37 50
0 0 0 0
0 0 0 0
0 0 0 0
0 0 0 0
0 0 0 0
0 0 0 0
2 0 0 0
17 2 0 0
26 17 8 1
56 72 89 120
128 144 133 142
194 251 248 253
257 314 295 254
242 297 263 257
187 257 246 240
116 171 170 157
0 2 0 0
0 0 0 0
0 0 0 0
0 0 0 0
0 0 0 0
0 0 0 0
0 0 0 0
2 0 0 0
15 4 0 0
25 22 13 3
61 83 104 126
133 151 148 138
198 252 253 247
252 312 289 263
231 309 265 259
170 252 258 245
93 161 156 137
0 0 0 0
0 0 0 0
0 0 0 0
0 0 0 0
0 0 0 0
0 0 0 0
0 0 0 0
9 0 0 0
17 8 0 0
33 34 30 37
80 107 130 129
136 170 174 172
214 271 265 249
254 302 281 255
223 290 255 255
161 231 247 253
59 127 137 128
0 0 0 0
0 0 0 0
0 0 0 0
0 0 0 0
0 0 0 0
0 0 0 0
2 0 0 0
11 0 0 0
24 13 4 0
43 51 53 69
111 134 134 134
168 206 220 246
251 318 298 267
255 313 293 261
199 260 256 254
133 172 179 175
3 23 37 43
0 0 0 0
0 0 0 0
0 0 0 0
0 0 0 0
0 0 0 0
0 0 0 0
1 0 0 0
15 2 0 0
24 20 13 6
58 69 91 117
129 143 135 135
192 249 245 247
256 318 301 269
244 300 265 257
188 257 242 249
118 193 196 187
0 7 9 1
0 0 0 0
0 0 0 0
0 0 0 0
0 0 0 0
0 0 0 0
0 0 0 0
2 0 0 0
14 2 0 0
23 15 7 1
62 75 95 129
127 142 137 142
187 243 259 247
253 316 297 267
246 302 273 259
189 251 258 241
114 160 157 133
0 0 0 0
0 0 0 0
0 0 0 0
0 0 0 0
0 0 0 0
0 0 0 0
0 0 0 0
1 0 0 0
12 5 0 0
29 25 22 20
73 91 122 119
133 161 164 163
211 258 253 252
255 301 280 257
231 299 262 253
177 250 257 244
85 148 137 130
0 0 0 0
0 0 0 0
0 0 0 0
0 0 0 0
0 0 0 0
0 0 0 0
0 0 0 0
3 0 0 0
13 5 0 0
37 36 35 38
89 123 129 131
141 187 195 210
223 289 259 258
251 310 283 252
220 289 256 253
154 227 245 245
47 121 131 127
0 0 0 0
0 0 0 0
0 0 0 0
0 0 0 0
0 0 0 0
0 0 0 0
1 0 0 0
15 1 0 0
17 8 0 0
43 44 44 50
110 133 128 136
167 213 230 247
250 330 316 285
248 338 329 294
199 274 255 254
133 188 200 209
0 27 44 62
0 0 0 0
0 0 0 0
0 0 0 0
0 0 0 0
0 0 0 0
0 0 0 0
4 0 0 0
16 2 0 0
31 23 17 14
71 93 117 130
132 158 158 147
197 254 243 249
252 314 291 259
234 310 274 258
179 256 246 241
97 168 163 138
0 1 0 0
0 0 0 0
0 0 0 0
0 0 0 0
0 0 0 0
0 0 0 0
0 0 0 0
7 0 0 0
10 0 0 0
35 24 28 26
77 100 125 126
138 168 179 185
213 264 256 254
255 300 275 260
225 290 255 254
166 243 258 252
62 127 134 131
0 0 0 0
0 0 0 0
0 0 0 0
0 0 0 0
0 0 0 0
0 0 0 0
0 0 0 0
8 0 0 0
21 9 2 0
44 44 48 60
100 130 132 135
158 201 222 242
239 315 291 252
256 320 301 260
209 275 255 244
132 211 233 246
18 75 121 126
0 0 0 0
0 0 0 0
0 0 0 0
0 0 0 0
0 0 0 0
0 0 0 0
1 0 0 0
12 2 0 0
29 23 15 13
72 93 120 135
130 159 154 152
200 250 255 253
253 299 272 263
236 308 264 255
178 252 240 244
94 162 154 134
0 0 0 0
0 0 0 0
0 0 0 0
0 0 0 0
0 0 0 0
0 0 0 0
0 0 0 0
5 0 0 0
14 1 0 0
36 29 31 33
78 103 122 128
139 177 180 186
216 275 257 253
249 325 301 265
217 295 256 259
159 237 259 235
59 128 143 131
0 0 0 0
0 0 0 0
0 0 0 0
0 0 0 0
0 0 0 0
0 0 0 0
1 0 0 0
8 0 0 0
12 6 0 0
43 43 50 58
100 131 138 130
158 204 224 246
246 303 280 253
253 305 275 262
202 258 258 257
131 204 219 245
7 60 97 130
0 0 0 0
0 0 0 0
0 0 0 0
0 0 0 0
0 0 0 0
0 0 0 0
3 0 0 0
11 0 0 0
25 17 8 2
50 61 69 89
114 132 131 133
181 229 250 255
253 313 298 261
249 324 299 256
193 263 251 240
129 193 205 209
0 29 50 69
0 0 0 0
0 0 0 0
0 0 0 0
0 0 0 0
0 0 0 0
0 0 0 0
2 0 0 0
14 4 0 0
25 19 8 1
57 70 84 115
133 144 133 152
194 246 251 241
255 314 298 265
245 304 271 261
192 250 261 247
123 167 170 158
0 0 0 0
0 0 0 0
0 0 0 0
0 0 0 0
0 0 0 0
0 0 0 0
0 0 0 0
7 0 0 0
14 1 0 0
30 24 22 23
70 91 117 135
132 156 153 141
204 253 259 252
252 306 281 253
232 305 268 253
173 249 255 246
78 136 133 126
0 0 0 0
0 0 0 0
0 0 0 0
0 0 0 0
0 0 0 0
0 0 0 0
0 0 0 0
6 0 0 0
17 8 0 0
35 39 35 39
84 117 126 127
144 190 204 218
218 285 258 263
248 333 310 275
214 298 266 245
157 234 261 239
46 121 141 130
0 0 0 0
0 0 0 0
0 0 0 0
0 0 0 0
0 0 0 0
0 0 0 0
1 0 0 0
7 0 0 0
18 3 0 0
40 39 36 42
101 129 132 128
161 202 217 248
246 299 273 274
256 302 269 259
203 263 249 252
133 180 186 185
3 32 47 58
0 0 0 0
0 0 0 0
0 0 0 0
0 0 0 0
0 0 0 0
0 0 0 0
1 0 0 0
13 1 0 0
25 19 12 4
56 66 85 114
124 129 143 130
184 233 251 239
256 313 299 263
247 305 274 252
195 254 257 244
126 172 179 166
0 3 4 0
0 0 0 0
0 0 0 0
0 0 0 0
0 0 0 0
0 0 0 0
0 0 0 0
3 0 0 0
11 1 0 0
24 13 3 0
54 61 73 90
119 144 134 137
176 230 255 235
253 306 289 259
251 309 279 254
198 259 246 254
128 175 174 163
0 9 13 2
0 0 0 0
0 0 0 0
0 0 0 0
0 0 0 0
0 0 0 0
0 0 0 0
4 0 0 0
17 3 0 0
27 23 19 16
70 95 118 135
132 158 158 148
204 254 250 254
254 307 284 256
237 315 279 254
182 254 243 255
98 167 158 134
0 0 0 0
0 0 0 0
0 0 0 0
0 0 0 0
0 0 0 0
0 0 0 0
0 0 0 0
7 0 0 0
10 1 0 0
34 30 29 30
77 106 127 123
138 176 183 187
215 273 257 254
253 305 282 251
216 284 258 257
158 227 247 247
59 126 131 132
0 0 0 0
0 0 0 0
0 0 0 0
0 0 0 0
0 0 0 0
0 0 0 0
2 0 0 0
6 0 0 0
23 10 4 0
44 45 51 59
104 130 124 133
166 212 237 226
245 315 299 261
245 331 311 264
198 270 264 243
134 195 216 236
7 48 81 121
0 0 0 0
0 0 0 0
0 0 0 0
0 0 0 0
0 0 0 0
0 0 0 0
1 0 0 0
12 3 0 0
27 22 14 12
71 89 121 134
132 156 163 160
200 254 248 252
255 314 295 256
230 312 270 259
178 254 245 250
105 173 166 144
0 0 0 0
0 0 0 0
0 0 0 0
0 0 0 0
0 0 0 0
0 0 0 0
0 0 0 0
2 0 0 0
17 5 0 0
32 27 21 20
80 108 126 129
139 181 186 194
219 282 253 256
251 325 298 263
218 294 254 256
158 233 251 232
45 122 134 131
0 0 0 0
0 0 0 0
0 0 0 0
0 0 0 0
0 0 0 0
0 0 0 0
1 0 0 0
13 2 0 0
22 15 6 2
45 53 58 73
114 135 128 138
170 215 233 248
251 304 289 258
249 309 280 259
204 263 253 255
132 172 173 164
0 20 27 29
0 0 0 0
0 0 0 0
0 0 0 0
0 0 0 0
0 0 0 0
0 0 0 0
4 0 0 0
16 2 0 0
30 22 21 19
75 98 127 122
134 163 167 160
205 259 253 248
254 330 309 266
234 316 288 254
177 255 247 247
92 160 143 135
0 0 0 0
0 0 0 0
0 0 0 0
0 0 0 0
0 0 0 0
0 0 0 0
0 0 0 0
9 0 0 0
18 11 0 0
34 33 32 33
89 120 130 132
145 184 195 209
220 283 252 252
254 306 279 255
218 289 253 257
157 229 254 260
47 120 130 130
0 0 0 0
0 0 0 0
0 0 0 0
0 0 0 0
0 0 0 0
0 0 0 0
4 0 0 0
9 0 0 0
20 6 0 0
47 51 58 72
101 130 126 134
164 210 238 227
245 315 301 266
246 331 314 269
199 272 258 249
137 193 212 232
3 36 63 97
0 0 0 0
0 0 0 0
0 0 0 0
0 0 0 0
0 0 0 0
0 0 0 0
0 0 0 0
8 0 0 0
21 14 2 1
50 59 69 92
111 129 134 138
171 210 231 253
254 302 288 254
249 321 294 254
194 263 254 257
125 190 200 205
0 31 51 72
0 0 0 0
0 0 0 0
0 0 0 0
0 0 0 0
0 0 0 0
0 0 0 0
6 0 0 0
10 0 0 0
29 22 17 13
68 83 111 115
132 150 145 129
197 253 246 248
252 312 299 261
231 309 272 250
179 256 250 246
99 168 167 146
0 1 0 0
0 0 0 0
0 0 0 0
0 0 0 0
0 0 0 0
0 0 0 0
0 0 0 0
5 0 0 0
17 4 0 0
33 27 21 16
81 111 133 120
140 178 186 191
217 275 254 250
255 304 274 254
220 287 257 260
157 228 249 250
52 127 128 133
0 0 0 0
0 0 0 0
0 0 0 0
0 0 0 0
0 0 0 0
0 0 0 0
0 0 0 0
9 0 0 0
19 3 0 0
43 43 49 61
102 131 132 136
160 205 226 247
248 302 280 251
253 309 280 257
207 272 252 251
135 189 205 216
13 54 86 121
0 0 0 0
0 0 0 0
0 0 0 0
0 0 0 0
0 0 0 0
0 0 0 0
3 0 0 0
10 1 0 0
23 20 9 4
57 72 90 117
124 129 143 133
182 232 251 237
252 333 318 285
248 317 298 254
195 259 253 255
125 171 172 159
0 3 3 0
0 0 0 0
0 0 0 0
0 0 0 0
0 0 0 0
0 0 0 0
0 0 0 0
3 0 0 0
11 0 0 0
29 19 14 11
71 88 121 132
132 151 153 141
198 252 257 259
252 312 291 260
229 309 269 254
181 258 248 241
96 167 158 131
0 0 0 0
0 0 0 0
0 0 0 0
0 0 0 0
0 0 0 0
0 0 0 0
0 0 0 0
6 0 0 0
19 4 0 0
32 27 20 17
77 103 124 125
135 167 173 169
211 265 255 258
254 298 273 258
219 284 258 260
159 228 250 256
54 128 135 129
0 0 0 0
0 0 0 0
0 0 0 0
0 0 0 0
0 0 0 0
0 0 0 0
0 0 0 0
10 0 0 0
15 7 0 0
45 47 55 67
103 130 131 135
166 210 237 229
246 321 310 270
254 315 299 257
201 268 259 241
130 186 197 204
3 37 58 86
0 0 0 0
0 0 0 0
0 0 0 0
0 0 0 0
0 0 0 0
00 133
0 0 0 0
0 0 0 0
0 0 0 0
0 0 0 0
0 0 0 0
0 0 0 0
0 0 0 0
12 0 0 0
16 4 0 0
40 43 43 55
99 127 131 137
151 197 212 232
230 303 270 261
252 312 288 253
210 275 257 240
140 200 221 241
29 84 131 129
0 0 0 0
0 0 0 0
0 0 0 0
0 0 0 0
0 0 0 0
0 0 0 0
1 0 0 0
14 3 0 0
19 8 1 0
44 50 53 66
109 136 134 129
170 210 229 254
254 302 284 253
245 318 292 249
191 260 251 247
128 195 203 212
0 32 53 78
0 0 0 0
0 0 0 0
0 0 0 0
0 0 0 0
0 0 0 0
0 0 0 0
1 0 0 0
13 1 0 0
26 22 18 15
72 92 116 130
137 161 159 150
201 254 252 262
253 314 299 268
231 309 272 261
182 254 244 256
99 168 153 137
0 0 0 0
0 0 0 0
0 0 0 0
0 0 0 0
0 0 0 0
0 0 0 0
0 0 0 0
4 0 0 0
13 1 0 0
29 23 15 13
77 106 127 124
135 167 172 171
212 268 261 245
249 319 299 254
215 290 260 257
159 236 254 238
53 128 135 123
0 0 0 0
0 0 0 0
0 0 0 0
0 0 0 0
0 0 0 0
0 0 0 0
1 0 0 0
11 0 0 0
15 6 0 0
45 50 53 72
106 130 128 138
169 213 231 253
249 305 283 257
257 314 288 251
208 268 255 259
128 196 212 224
4 46 81 117
0 0 0 0
0 0 0 0
0 0 0 0
0 0 0 0
0 0 0 0
0 0 0 0
3 0 0 0
11 0 0 0
20 13 1 0
58 69 83 116
126 135 149 136
182 233 253 238
251 313 299 265
248 306 280 249
191 251 258 247
125 173 182 181
0 2 1 0
0 0 0 0
0 0 0 0
0 0 0 0
0 0 0 0
0 0 0 0
0 0 0 0
3 0 0 0
17 2 0 0
27 21 18 15
71 95 118 133
138 163 160 153
197 251 249 259
252 313 296 266
232 308 271 256
172 253 254 248
99 166 155 133
0 0 0 0
0 0 0 0
0 0 0 0
0 0 0 0
0 0 0 0
0 0 0 0
0 0 0 0
7 0 0 0
14 1 0 0
34 29 27 30
77 101 126 128
137 171 183 192
210 264 255 262
251 321 299 259
216 293 264 250
166 241 252 254
65 132 135 132
0 0 0 0
0 0 0 0
0 0 0 0
0 0 0 0
0 0 0 0
0 0 0 0
0 0 0 0
7 0 0 0
19 11 2 0
42 42 43 52
105 135 129 136
162 203 223 242
248 317 301 269
254 314 297 258
204 267 257 247
132 192 209 227
14 50 86 125
0 0 0 0
0 0 0 0
0 0 0 0
0 0 0 0
0 0 0 0
0 0 0 0
5 0 0 0
9 0 0 0
17 9 0 0
44 48 55 61
113 130 133 137
172 213 232 251
250 324 308 272
247 328 308 262
188 262 251 234
127 205 224 241
0 33 61 89
0 0 0 0
0 0 0 0
0 0 0 0
0 0 0 0
0 0 0 0
0 0 0 0
3 0 0 0
9 0 0 0
19 7 0 0
50 56 68 88
118 132 135 130
174 221 245 238
252 311 301 266
248 321 302 258
188 257 259 233
127 200 217 230
0 35 59 91
0 0 0 0
0 0 0 0
0 0 0 0
0 0 0 0
0 0 0 0
0 0 0 0
3 0 0 0
13 4 0 0
26 17 9 1
60 71 91 116
130 143 136 133
194 248 249 251
258 320 303 266
248 304 275 250
194 257 250 252
117 178 171 153
0 4 0 0
0 0 0 0
0 0 0 0
0 0 0 0
0 0 0 0
0 0 0 0
0 0 0 0
4 0 0 0
10 0 0 0
27 24 21 22
69 88 116 127
129 152 148 132
205 256 255 248
253 306 291 261
229 301 263 252
172 253 249 252
81 140 131 126
0 0 0 0
0 0 0 0
0 0 0 0
0 0 0 0
0 0 0 0
0 0 0 0
0 0 0 0
3 0 0 0
16 4 0 0
33 30 24 21
88 118 127 125
148 190 203 216
229 295 260 257
253 314 285 250
221 293 259 249
154 228 249 252
44 118 134 123
0 0 0 0
0 0 0 0
0 0 0 0
0 0 0 0
0 0 0 0
0 0 0 0
3 0 0 0
8 0 0 0
22 9 2 0
49 51 57 73
109 131 130 138
165 207 227 249
247 322 304 272
255 314 300 256
203 267 257 245
135 193 210 226
5 42 68 103
0 0 0 0
0 0 0 0
0 0 0 0
0 0 0 0
0 0 0 0
0 0 0 0
2 0 0 0
10 1 0 0
22 17 6 3
53 65 75 97
116 128 130 139
180 218 243 234
253 310 300 269
248 307 276 256
198 257 253 251
127 197 205 210
0 25 42 57
0 0 0 0
0 0 0 0
0 0 0 0
0 0 0 0
0 0 0 0
0 0 0 0
7 0 0 0
12 1 0 0
32 21 14 6
70 86 115 115
136 154 156 140
206 258 256 259
254 307 288 263
231 301 265 255
170 248 258 242
88 154 143 131
0 0 0 0
0 0 0 0
0 0 0 0
0 0 0 0
0 0 0 0
0 0 0 0
0 0 0 0
2 0 0 0
17 8 1 0
33 34 32 37
81 118 120 130
139 183 191 204
214 275 255 251
251 326 298 254
219 298 266 246
156 235 257 233
54 127 131 131
0 0 0 0
0 0 0 0
0 0 0 0
0 0 0 0
0 0 0 0
0 0 0 0
1 0 0 0
9 0 0 0
17 7 0 0
42 44 50 61
97 126 130 125
152 191 204 217
238 309 273 264
254 314 289 250
208 273 247 257
136 188 203 204
10 50 80 115
0 0 0 0
0 0 0 0
0 0 0 0
0 0 0 0
0 0 0 0
0 0 0 0
1 0 0 0
16 1 0 0
25 21 12 8
58 69 89 115
127 141 138 132
184 236 254 236
253 316 303 266
247 305 279 247
193 254 259 250
118 180 178 164
0 8 5 0
0 0 0 0
0 0 0 0
0 0 0 0
0 0 0 0
0 0 0 0
0 0 0 0
5 0 0 0
9 1 0 0
24 17 9 4
53 61 70 94
122 131 137 149
184 228 246 251
255 314 298 264
249 327 306 257
192 263 257 242
119 205 213 223
0 28 48 67
0 0 0 0
0 0 0 0
0 0 0 0
0 0 0 0
0 0 0 0
0 0 0 0
2 0 0 0
14 3 0 0
31 29 25 23
73 96 126 120
128 160 160 152
206 258 257 258
252 306 284 252
231 301 267 247
172 252 257 248
76 133 146 132
0 0 0 0
0 0 0 0
0 0 0 0
0 0 0 0
0 0 0 0
0 0 0 0
0 0 0 0
9 0 0 0
18 10 1 0
34 37 33 39
94 128 132 127
152 194 207 224
235 309 279 255
253 315 293 255
215 288 250 258
146 207 230 249
26 81 130 127
0 0 0 0
0 0 0 0
0 0 0 0
0 0 0 0
0 0 0 0
0 0 0 0
3 0 0 0
11 0 0 0
19 9 0 0
50 57 64 86
117 134 129 142
174 213 233 246
255 309 291 261
245 324 295 259
194 263 256 257
132 175 187 192
0 20 35 43
0 0 0 0
0 0 0 0
0 0 0 0
0 0 0 0
0 0 0 0
0 0 0 0
2 0 0 0
15 3 0 0
20 13 3 0
59 72 86 121
124 130 145 130
185 236 259 247
256 309 296 261
243 295 262 257
187 257 247 244
124 170 173 151
0 4 1 0
0 0 0 0
0 0 0 0
0 0 0 0
0 0 0 0
0 0 0 0
0 0 0 0
5 0 0 0
13 0 0 0
26 14 3 0
55 67 80 101
125 132 142 134
190 237 258 246
253 310 296 262
242 296 260 250
190 257 254 242
119 182 189 186
0 8 8 4
0 0 0 0
0 0 0 0
0 0 0 0
0 0 0 0
0 0 0 0
0 0 0 0
3 0 0 0
8 0 0 0
16 9 0 0
44 47 50 59
115 132 134 138
173 213 236 253
252 306 293 260
244 317 290 256
188 257 254 263
130 192 203 217
0 35 47 72
0 0 0 0
0 0 0 0
0 0 0 0
0 0 0 0
0 0 0 0
0 0 0 0
5 0 0 0
16 4 0 0
31 24 21 20
70 92 115 129
130 154 150 133
198 253 257 241
251 304 287 253
233 306 269 251
171 247 252 230
89 154 142 127
0 0 0 0
0 0 0 0
0 0 0 0
0 0 0 0
0 0 0 0
0 0 0 0
0 0 0 0
10 0 0 0
12 3 0 0
33 27 27 20
90 121 130 132
143 185 196 206
221 288 258 261
252 306 276 258
213 283 262 248
150 216 243 241
44 106 133 128
0 0 0 0
0 0 0 0
0 0 0 0
0 0 0 0
0 0 0 0
0 0 0 0
0 0 0 0
7 0 0 0
22 11 2 0
54 60 70 94
114 128 139 132
178 221 244 250
252 328 311 274
251 318 299 264
206 271 260 243
138 182 193 194
1 28 43 58
0 0 0 0
0 0 0 0
0 0 0 0
0 0 0 0
0 0 0 0
0 0 0 0
4 0 0 0
20 4 0 0
31 24 23 21
68 91 114 124
133 152 144 128
198 255 247 249
251 314 296 267
236 316 281 252
176 254 249 245
92 160 154 134
0 0 0 0
0 0 0 0
0 0 0 0
0 0 0 0
0 0 0 0
0 0 0 0
0 0 0 0
14 0 0 0
22 12 2 0
43 48 51 61
87 126 128 127
148 195 209 226
234 302 272 261
252 312 287 250
212 279 259 243
151 220 246 252
32 95 128 128
0 0 0 0
0 0 0 0
0 0 0 0
0 0 0 0
0 0 0 0
0 0 0 0
3 0 0 0
15 1 0 0
24 20 12 5
54 65 81 109
125 133 149 138
176 221 244 253
252 306 289 256
247 301 268 254
194 257 256 248
127 170 173 156
0 3 1 0
0 0 0 0
0 0 0 0
0 0 0 0
0 0 0 0
0 0 0 0
0 0 0 0
6 0 0 0
16 3 0 0
25 25 19 14
70 94 118 130
135 158 156 142
198 254 258 256
254 312 293 261
239 290 260 247
178 247 260 244
95 160 152 134
0 0 0 0
0 0 0 0
0 0 0 0
0 0 0 0
0 0 0 0
0 0 0 0
0 0 0 0
5 0 0 0
15 1 0 0
33 30 26 26
75 101 124 124
134 164 170 166
213 263 254 253
252 300 273 254
224 289 255 253
163 236 251 251
65 130 130 128
0 0 0 0
0 0 0 0
0 0 0 0
0 0 0 0
0 0 0 0
0 0 0 0
2 0 0 0
9 1 0 0
20 10 0 0
50 52 59 75
101 129 127 127
164 210 232 249
249 303 283 256
257 311 291 253
210 272 249 238
131 209 226 244
6 59 102 136
0 0 0 0
0 0 0 0
0 0 0 0
0 0 0 0
0 0 0 0
0 0 0 0
2 0 0 0
9 0 0 0
19 8 1 0
51 55 66 84
112 126 132 132
170 211 229 251
251 324 308 268
246 329 309 261
188 263 258 244
127 208 230 245
0 36 62 90
0 0 0 0
0 0 0 0
0 0 0 0
0 0 0 0
0 0 0 0
0 0 0 0
5 0 0 0
11 1 0 0
29 19 20 16
74 95 122 116
135 163 164 153
205 258 257 255
251 309 285 252
234 309 267 255
180 258 249 241
92 163 156 130
0 0 0 0
0 0 0 0
0 0 0 0
0 0 0 0
0 0 0 0
0 0 0 0
0 0 0 0
9 0 0 0
19 8 1 0
34 37 34 41
77 112 133 125
140 181 192 203
214 274 255 250
252 329 304 268
220 302 269 257
160 239 256 249
53 126 133 124
0 0 0 0
0 0 0 0
0 0 0 0
0 0 0 0
0 0 0 0
0 0 0 0
4 0 0 0
12 1 0 0
23 16 9 2
50 62 74 101
123 131 142 134
184 223 245 247
256 305 283 256
249 307 273 260
207 261 259 254
133 176 179 177
0 16 21 22
0 0 0 0
0 0 0 0
0 0 0 0
0 0 0 0
0 0 0 0
0 0 0 0
2 0 0 0
17 2 0 0
26 19 7 2
65 83 104 131
129 167 166 167
192 258 253 247
251 314 297 269
236 315 281 251
186 258 253 252
112 159 152 134
0 0 0 0
0 0 0 0
0 0 0 0
0 0 0 0
0 0 0 0
0 0 0 0
0 0 0 0
3 0 0 0
17 3 0 0
29 27 15 13
73 99 124 118
131 171 174 173
214 264 254 255
256 296 273 264
226 289 250 255
170 243 255 252
75 137 142 130
0 0 0 0
0 0 0 0
0 0 0 0
0 0 0 0
0 0 0 0
0 0 0 0
0 0 0 0
11 0 0 0
14 3 0 0
41 40 44 53
99 127 134 132
150 184 196 206
238 306 273 253
255 308 279 257
211 275 246 256
140 201 217 0 0
0 0 0 0
0 0 0 0
0 0 0 0
0 0 0 0
5 0 0 0
17 3 0 0
34 27 26 23
78 101 130 128
135 166 176 179
202 259 256 259
251 307 288 256
229 301 266 248
167 247 248 241
72 135 150 133
0 0 0 0
0 0 0 0
0 0 0 0
0 0 0 0
0 0 0 0
0 0 0 0
0 0 0 0
9 1 0 0
16 3 0 0
36 33 29 27
88 122 135 127
142 176 184 187
228 290 255 259
251 326 300 257
216 295 261 247
157 230 253 228
42 115 128 139
0 0 0 0
0 0 0 0
0 0 0 0
0 0 0 0
0 0 0 0
0 0 0 0
2 0 0 0
16 0 0 0
28 21 15 11
68 87 115 125
135 152 157 148
199 254 246 254
255 315 296 262
238 297 262 248
179 248 251 227
109 175 173 155
0 0 0 0
0 0 0 0
0 0 0 0
0 0 0 0
0 0 0 0
0 0 0 0
0 0 0 0
2 0 0 0
17 5 0 0
32 24 22 12
80 108 129 130
136 169 170 167
214 268 261 253
251 321 299 258
219 294 257 255
157 234 252 226
59 129 137 132
0 0 0 0
0 0 0 0
0 0 0 0
0 0 0 0
0 0 0 0
0 0 0 0
1 0 0 0
10 0 0 0
21 11 4 0
49 55 65 87
108 129 133 133
168 206 229 254
249 319 302 271
254 312 292 255
199 263 254 241
129 204 217 233
2 45 78 119
0 0 0 0
0 0 0 0
0 0 0 0
0 0 0 0
0 0 0 0
0 0 0 0
4 0 0 0
10 0 0 0
28 22 21 16
73 98 128 122
131 163 167 163
204 254 260 248
251 328 308 272
228 313 277 249
177 257 242 253
89 158 141 136
0 0 0 0
0 0 0 0
0 0 0 0
0 0 0 0
0 0 0 0
0 0 0 0
0 0 0 0
5 0 0 0
16 4 0 0
33 27 23 20
81 109 128 131
135 174 176 174
212 271 256 250
254 302 281 253
219 286 253 256
154 223 242 251
51 119 134 133
0 0 0 0
0 0 0 0
0 0 0 0
0 0 0 0
0 0 0 0
0 0 0 0
1 0 0 0
13 1 0 0
23 16 5 1
47 53 63 79
115 131 130 130
173 213 238 248
253 298 284 253
250 309 278 251
204 261 255 246
131 178 192 194
1 16 30 33
0 0 0 0
0 0 0 0
0 0 0 0
0 0 0 0
0 0 0 0
0 0 0 0
1 0 0 0
14 2 0 0
27 21 18 12
73 95 122 117
131 159 160 150
202 254 250 256
255 301 278 261
230 302 264 253
181 252 243 256
93 158 140 130
0 0 0 0
0 0 0 0
0 0 0 0
0 0 0 0
0 0 0 0
0 0 0 0
0 0 0 0
9 0 0 0
19 8 1 0
37 38 35 39
79 113 134 126
142 183 194 204
221 282 254 261
252 309 283 250
215 286 253 250
164 237 258 253
60 127 134 133
0 0 0 0
0 0 0 0
0 0 0 0
0 0 0 0
0 0 0 0
0 0 0 0
1 0 0 0
9 0 0 0
19 4 0 0
45 43 50 60
102 127 133 135
160 203 223 245
247 301 278 252
253 305 277 250
206 263 253 254
137 186 201 216
9 43 71 102
0 0 0 0
0 0 0 0
0 0 0 0
0 0 0 0
0 0 0 0
0 0 0 0
1 0 0 0
12 1 0 0
23 14 5 0
47 57 65 83
116 133 130 127
181 228 249 249
255 306 289 264
250 309 278 254
204 260 258 253
130 168 169 159
0 8 7 0
0 0 0 0
0 0 0 0
0 0 0 0
0 0 0 0
0 0 0 0
0 0 0 0
2 0 0 0
11 0 0 0
22 14 4 0
47 52 59 74
115 131 138 141
171 212 232 252
251 303 287 254
251 323 298 257
189 262 249 257
130 187 203 212
0 31 53 74
0 0 0 0
0 0 0 0
0 0 0 0
0 0 0 0
0 0 0 0
0 0 0 0
3 0 0 0
10 0 0 0
25 19 12 10
69 88 119 130
137 157 162 159
197 255 249 260
252 313 294 263
236 316 283 252
173 255 246 246
94 161 153 133
0 0 0 0
0 0 0 0
0 0 0 0
0 0 0 0
0 0 0 0
0 0 0 0
0 0 0 0
8 0 0 0
14 1 0 0
32 24 19 9
74 100 128 124
132 185 194 203
207 269 269 259
252 326 314 265
229 312 279 248
162 244 253 232
73 133 132 127
0 0 0 0
0 0 0 0
0 0 0 0
0 0 0 0
0 0 0 0
0 0 0 0
0 0 0 0
7 0 0 0
12 2 0 0
33 29 26 25
91 122 130 128
142 175 184 188
229 291 258 252
252 328 301 261
217 294 257 241
152 229 253 255
34 103 130 126
0 0 0 0
0 0 0 0
0 0 0 0
0 0 0 0
0 0 0 0
0 0 0 0
3 0 0 0
11 0 0 0
17 8 0 0
52 57 65 83
114 132 133 136
179 225 245 257
253 311 294 263
249 328 309 270
193 263 255 245
129 206 226 241
0 39 69 104
0 0 0 0
0 0 0 0
0 0 0 0
0 0 0 0
0 0 0 0
0 0 0 0
6 0 0 0
18 10 0 0
36 38 40 44
78 113 133 121
136 174 179 180
217 275 261 259
250 328 314 279
219 301 263 254
155 235 248 257
55 127 132 128
0 0 0 0
0 0 0 0
0 0 0 0
0 0 0 0
0 0 0 0
0 0 0 0
2 0 0 0
5 0 0 0
21 11 4 0
49 55 65 87
107 133 137 133
167 210 238 226
252 323 313 277
255 316 301 260
203 266 259 242
132 184 199 203
7 41 66 94
0 0 0 0
0 0 0 0
0 0 0 0
0 0 0 0
0 0 0 0
0 0 0 0
4 0 0 0
9 0 0 0
21 11 4 0
50 58 70 92
116 130 135 130
174 213 236 251
252 303 289 256
250 322 300 260
196 264 249 260
135 191 205 219
0 27 44 65
0 0 0 0
0 0 0 0
0 0 0 0
0 0 0 0
0 0 0 0
0 0 0 0
1 0 0 0
14 2 0 0
29 21 20 14
72 93 119 135
137 163 160 153
198 254 262 248
250 310 289 255
230 304 262 261
171 249 254 243
95 161 155 138
0 0 0 0
0 0 0 0
0 0 0 0
0 0 0 0
0 0 0 0
0 0 0 0
0 0 0 0
7 0 0 0
13 2 0 0
32 24 20 14
77 102 123 123
131 187 192 202
215 280 255 260
251 305 282 249
218 285 260 258
164 237 254 242
64 132 144 134
0 0 0 0
0 0 0 0
0 0 0 0
0 0 0 0
0 0 0 0
0 0 0 0
0 0 0 0
13 1 0 0
23 11 5 0
50 59 69 88
115 129 141 127
170 210 229 252
247 321 302 265
252 340 328 286
199 275 255 253
134 192 202 212
3 38 61 89
0 0 0 0
0 0 0 0
0 0 0 0
0 0 0 0
0 0 0 0
0 0 0 0
1 0 0 0
13 2 0 0
22 20 12 7
54 69 88 121
126 141 138 142
182 235 256 239
252 312 301 265
242 296 264 254
192 251 257 245
119 166 162 142
0 0 0 0
0 0 0 0
0 0 0 0
0 0 0 0
0 0 0 0
0 0 0 0
0 0 0 0
6 0 0 0
18 4 0 0
32 30 28 29
69 94 120 134
130 156 157 143
206 257 254 261
252 327 303 264
233 318 285 253
170 252 246 245
89 157 149 130
0 0 0 0
0 0 0 0
0 0 0 0
0 0 0 0
0 0 0 0
0 0 0 0
0 0 0 0
7 0 0 0
20 8 0 0
35 38 35 39
81 114 118 129
143 183 193 201
216 277 259 253
252 326 300 255
222 297 263 252
157 234 252 228
47 122 137 126
0 0 0 0
0 0 0 0
0 0 0 0
0 0 0 0
0 0 0 0
0 0 0 0
0 0 0 0
7 0 0 0
20 11 2 0
44 43 49 55
103 130 125 128
167 215 243 238
249 321 309 271
249 333 317 271
194 265 258 256
135 187 202 209
2 36 61 87
0 0 0 0
0 0 0 0
0 0 0 0
0 0 0 0
0 0 0 0
0 0 0 0
2 0 0 0
11 0 0 0
19 9 0 0
50 59 65 85
113 126 133 133
172 211 231 253
254 305 286 255
250 329 305 261
195 267 257 238
125 189 200 203
0 31 52 67
0 0 0 0
0 0 0 0
0 0 0 0
0 0 0 0
0 0 0 0
0 0 0 0
2 0 0 0
12 3 0 0
26 24 17 16
68 85 115 118
132 152 152 140
197 255 244 250
253 310 287 260
234 312 271 262
171 252 261 246
92 160 153 138
0 0 0 0
0 0 0 0
0 0 0 0
0 0 0 0
0 0 0 0
0 0 0 0
0 0 0 0
3 0 0 0
17 4 0 0
32 27 24 22
83 114 131 122
136 173 177 177
216 274 258 253
254 301 283 251
218 283 255 251
161 233 247 259
54 123 139 126
0 0 0 0
0 0 0 0
0 0 0 0
0 0 0 0
0 0 0 0
0 0 0 0
1 0 0 0
10 0 0 0
26 15 5 1
50 59 71 95
116 129 136 128
172 213 236 248
251 305 288 256
250 329 311 265
194 263 255 261
124 194 202 210
0 33 52 74
0 0 0 0
0 0 0 0
0 0 0 0
0 0 0 0
0 0 0 0
0 0 0 0
6 0 0 0
16 3 0 0
27 23 18 15
72 91 118 132
135 157 156 148
197 254 246 251
253 314 296 262
235 318 283 254
181 253 259 248
101 177 170 152
0 0 0 0
0 0 0 0
0 0 0 0
0 0 0 0
0 0 0 0
0 0 0 0
0 0 0 0
2 0 0 0
17 6 0 0
38 36 36 38
83 120 131 130
137 178 187 195
216 273 255 256
252 323 298 260
217 294 261 254
157 231 251 221
47 119 132 131
0 0 0 0
0 0 0 0
0 0 0 0
0 0 0 0
0 0 0 0
0 0 0 0
2 0 0 0
12 0 0 0
16 7 0 0
43 51 56 74
103 131 126 129
167 215 239 230
248 319 308 267
252 340 328 287
195 270 266 246
132 183 197 200
5 37 60 86
0 0 0 0
0 0 0 0
0 0 0 0
0 0 0 0
0 0 0 0
0 0 0 0
1 0 0 0
12 2 0 0
22 19 8 4
58 71 87 121
119 148 129 147
177 236 249 237
253 309 290 263
250 309 280 254
196 254 253 258
125 171 170 159
0 8 8 0
0 0 0 0
0 0 0 0
0 0 0 0
0 0 0 0
0 0 0 0
0 0 0 0
5 0 0 0
17 2 0 0
26 20 18 12
65 82 109 114
132 153 154 147
189 250 258 250
251 309 290 257
230 309 266 253
182 259 249 243
100 173 169 141
0 0 0 0
0 0 0 0
0 0 0 0
0 0 0 0
0 0 0 0
0 0 0 0
0 0 0 0
3 0 0 0
15 4 0 0
30 25 21 14
83 110 134 120
141 179 189 193
217 277 254 255
251 304 281 254
220 290 255 258
159 233 254 231
56 129 139 128
0 0 0 0
0 0 0 0
0 0 0 0
0 0 0 0
0 0 0 0
0 0 0 0
1 0 0 0
7 0 0 0
22 11 4 0
50 55 66 86
106 131 134 127
164 210 228 245
247 324 305 268
245 332 311 267
197 267 257 260
133 185 200 201
7 41 66 95
0 0 0 0
0 0 0 0
0 0 0 0
0 0 0 0
0 0 0 0
0 0 0 0
2 0 0 0
9 0 0 0
19 7 0 0
46 51 58 74
104 133 126 134
162 209 221 245
249 306 280 248
255 312 284 258
204 267 260 260
132 182 193 199
7 39 61 87
0 0 0 0
0 0 0 0
0 0 0 0
0 0 0 0
0 0 0 0
0 0 0 0
5 0 0 0
16 3 0 0
27 20 15 11
67 84 113 118
125 166 162 152
186 256 248 250
255 314 303 262
237 320 291 255
181 254 250 254
110 187 187 178
0 3 3 0
0 0 0 0
0 0 0 0
0 0 0 0
0 0 0 0
0 0 0 0
0 0 0 0
8 0 0 0
21 6 0 0
32 27 24 19
81 112 133 124
140 178 187 195
214 272 257 254
249 325 301 268
214 295 258 250
160 241 259 254
56 125 132 130
0 0 0 0
0 0 0 0
0 0 0 0
0 0 0 0
0 0 0 0
0 0 0 0
0 0 0 0
9 0 0 0
20 10 1 0
44 50 58 74
101 129 132 134
160 202 217 240
251 304 279 255
256 311 283 257
206 267 259 256
135 197 212 222
9 49 72 114
0 0 0 0
0 0 0 0
0 0 0 0
0 0 0 0
0 0 0 0
0 0 0 0
5 0 0 0
11 0 0 0
19 8 1 0
44 49 51 66
111 137 133 135
171 215 232 253
250 303 287 264
250 327 305 261
195 263 260 238
128 195 208 217
0 28 44 64
0 0 0 0
0 0 0 0
0 0 0 0
0 0 0 0
0 0 0 0
0 0 0 0
1 0 0 0
16 2 0 0
28 23 23 19
74 97 128 121
134 164 165 158
201 251 254 250
252 306 293 255
232 309 271 253
178 253 242 237
89 156 147 132
0 0 0 0
0 0 0 0
0 0 0 0
0 0 0 0
0 0 0 0
0 0 0 0
0 0 0 0
2 0 0 0
16 3 0 0
35 32 34 35
84 117 124 127
139 174 179 180
214 271 252 251
251 302 279 257
222 290 256 258
159 226 248 248
58 127 135 130
0 0 0 0
0 0 0 0
0 0 0 0
0 0 0 0
0 0 0 0
0 0 0 0
1 0 0 0
14 0 0 0
26 16 9 4
51 58 70 87
117 134 138 136
173 217 245 234
252 308 295 261
253 331 314 270
197 267 262 245
125 194 206 216
0 37 62 90
0 0 0 0
0 0 0 0
0 0 0 0
0 0 0 0
0 0 0 0
0 0 0 0
1 0 0 0
14 1 0 0
26 23 17 15
65 83 110 115
135 155 153 14453
252 313 272 259
175 256 258 252
91 154 136 136
0 0 0 0
0 0 0 0
0 0 0 0
0 0 0 0
0 0 0 0
0 0 0 0
0 0 0 0
9 0 0 0
20 9 1 0
38 37 36 39
85 118 127 131
137 177 185 190
211 271 264 254
252 322 306 267
219 294 260 248
158 233 253 230
60 128 135 128
0 0 0 0
0 0 0 0
0 0 0 0
0 0 0 0
0 0 0 0
0 0 0 0
1 0 0 0
13 1 0 0
24 13 7 0
55 60 75 96
113 127 137 131
176 219 243 239
250 307 292 263
254 303 279 262
196 258 257 260
130 176 181 187
0 20 28 32
0 0 0 0
0 0 0 0
0 0 0 0
0 0 0 0
0 0 0 0
0 0 0 0
2 0 0 0
15 3 0 0
18 11 1 0
55 66 82 111
118 145 136 133
184 242 255 247
252 316 308 277
246 306 279 255
192 252 251 250
125 171 166 154
0 1 1 0
0 0 0 0
0 0 0 0
0 0 0 0
0 0 0 0
0 0 0 0
0 0 0 0
6 0 0 0
10 1 0 0
24 11 1 0
53 63 70 93
117 138 133 135
174 228 251 253
251 331 316 285
244 310 287 256
195 260 257 256
127 174 178 170
0 8 7 1
0 0 0 0
0 0 0 0
0 0 0 0
0 0 0 0
0 0 0 0
0 0 0 0
1 0 0 0
15 2 0 0
27 18 15 6
65 77 104 127
127 163 159 152
188 250 254 257
252 332 315 281
241 299 272 261
189 253 257 255
119 166 159 146
0 0 0 0
0 0 0 0
0 0 0 0
0 0 0 0
0 0 0 0
0 0 0 0
0 0 0 0
2 0 0 0
19 2 0 0
32 30 27 23
73 97 126 120
134 167 173 167
211 262 255 252
256 305 284 252
231 300 263 253
175 255 253 248
85 147 132 131
0 0 0 0
0 0 0 0
0 0 0 0
0 0 0 0
0 0 0 0
0 0 0 0
0 0 0 0
2 0 0 0
22 5 1 0
39 38 39 45
89 122 134 127
148 185 200 209
227 293 261 258
252 331 308 267
217 293 257 256
154 230 246 251
47 123 134 132
0 0 0 0
0 0 0 0
0 0 0 0
0 0 0 0
0 0 0 0
0 0 0 0
1 0 0 0
8 0 0 0
17 4 0 0
42 45 50 65
101 129 132 133
164 202 224 248
245 311 292 258
247 329 306 266
195 267 257 240
134 185 199 203
2 36 58 80
0 0 0 0
0 0 0 0
0 0 0 0
0 0 0 0
0 0 0 0
0 0 0 0
2 0 0 0
5 0 0 0
22 10 4 0
50 55 66 90
113 129 137 135
176 217 241 241
249 325 309 278
247 332 314 270
193 261 261 259
129 202 219 241
0 41 72 113
0 0 0 0
0 0 0 0
0 0 0 0
0 0 0 0
0 0 0 0
0 0 0 0
4 0 0 0
18 4 0 0
28 20 14 4
71 90 120 129
135 158 163 157
198 255 249 259
251 314 294 263
234 316 284 254
181 250 262 242
102 164 160 137
0 0 0 0
0 0 0 0
0 0 0 0
0 0 0 0
0 0 0 0
0 0 0 0
0 0 0 0
8 0 0 0
16 1 0 0
32 26 26 18
84 114 131 124
140 175 184 184
218 282 256 255
254 304 283 255
222 286 255 256
159 233 249 255
55 128 136 132
0 0 0 0
0 0 0 0
0 0 0 0
0 0 0 0
0 0 0 0
0 0 0 0
3 0 0 0
10 0 0 0
22 13 4 1
48 52 62 76
115 130 129 139
178 221 248 245
251 306 295 269
247 322 297 263
194 263 258 254
128 180 186 179
4 27 43 51
0 0 0 0
0 0 0 0
0 0 0 0
0 0 0 0
0 0 0 0
0 0 0 0
2 0 0 0
15 1 0 0
28 24 19 14
73 94 121 120
131 163 160 159
204 254 252 255
254 308 288 253
236 311 272 245
175 257 241 232
99 167 159 134
0 0 0 0
0 0 0 0
0 0 0 0
0 0 0 0
0 0 0 0
0 0 0 0
0 0 0 0
8 0 0 0
11 2 0 0
27 20 12 6
75 97 124 117
135 167 167 162
208 255 255 257
255 303 279 259
224 296 261 252
174 248 259 245
84 144 135 137
0 0 0 0
0 0 0 0
0 0 0 0
0 0 0 0
0 0 0 0
0 0 0 0
0 0 0 0
12 0 0 0
13 2 0 0
38 35 32 28
94 126 125 124
147 185 195 200
228 293 262 254
251 328 304 266
209 286 255 263
151 221 242 252
34 100 131 125
0 0 0 0
0 0 0 0
0 0 0 0
0 0 0 0
0 0 0 0
0 0 0 0
1 0 0 0
17 2 0 0
25 14 8 1
57 64 79 102
127 135 147 132
182 233 254 233
254 313 301 264
246 309 281 252
192 252 257 253
127 173 172 164
0 4 2 0
0 0 0 0
0 0 0 0
0 0 0 0
0 0 0 0
0 0 0 0
0 0 0 0
2 0 0 0
13 0 0 0
20 11 1 0
60 69 87 117
120 128 139 133
177 219 243 250
251 307 288 257
247 303 272 258
195 257 256 246
127 172 179 168
0 1 0 0
0 0 0 0
0 0 0 0
0 0 0 0
0 0 0 0
0 0 0 0
0 0 0 0
5 0 0 0
15 2 0 0
28 22 18 15
71 91 123 132
132 154 155 148
202 250 258 255
253 299 273 264
231 302 264 253
181 255 244 247
98 168 156 134
0 0 0 0
0 0 0 0
0 0 0 0
0 0 0 0
0 0 0 0
0 0 0 0
0 0 0 0
6 0 0 0
13 1 0 0
28 23 17 9
74 96 124 118
131 165 167 159
207 256 250 248
253 302 277 256
229 298 257 262
174 252 255 254
84 147 137 133
0 0 0 0
0 0 0 0
0 0 0 0
0 0 0 0
0 0 0 0
0 0 0 0
0 0 0 0
6 0 0 0
13 1 0 0
32 27 23 19
83 115 120 131
140 184 191 199
219 283 257 258
251 323 298 264
214 292 263 248
159 237 261 245
46 118 138 125
0 0 0 0
0 0 0 0
0 0 0 0
0 0 0 0
0 0 0 0
0 0 0 0
3 0 0 0
9 0 0 0
23 11 4 0
50 55 66 87
105 129 131 135
166 205 228 249
249 323 309 274
250 337 324 281
198 275 262 249
132 185 201 200
4 33 57 78
0 0 0 0
0 0 0 0
0 0 0 0
0 0 0 0
0 0 0 0
0 0 0 0
1 0 0 0
16 1 0 0
27 21 15 8
63 80 105 129
127 166 160 153
185 251 249 254
255 312 290 256
240 296 267 254
187 258 247 253
117 168 164 150
0 0 0 0
0 0 0 0
0 0 0 0
0 0 0 0
0 0 0 0
0 0 0 0
0 0 0 0
4 0 0 0
10 1 0 0
31 24 21 22
74 97 125 119
130 163 163 152
212 263 252 241
252 310 288 253
222 294 255 252
174 249 260 245
81 139 131 128
0 0 0 0
0 0 0 0
0 0 0 0
0 0 0 0
0 0 0 0
0 0 0 0
0 0 0 0
12 0 0 0
21 11 3 0
40 43 44 51
100 133 134 130
161 204 230 252
247 303 284 260
253 306 275 266
207 269 248 257
130 189 197 201
17 56 86 118
0 0 0 0
0 0 0 0
0 0 0 0
0 0 0 0
0 0 0 0
0 0 0 0
3 0 0 0
10 0 0 0
25 19 12 5
59 71 90 115
129 143 136 135
193 249 246 249
252 337 318 285
239 333 312 266
190 263 254 245
120 181 187 181
0 4 4 0
0 0 0 0
0 0 0 0
0 0 0 0
0 0 0 0
0 0 0 0
0 0 0 0
2 0 0 0
16 3 0 0
33 29 26 26
77 104 131 131
132 171 177 184
211 261 258 258
252 302 279 255
226 297 257 250
173 251 247 248
77 142 132 129
0 0 0 0
0 0 0 0
0 0 0 0
0 0 0 0
0 0 0 0
0 0 0 0
1 0 0 0
6 0 0 0
21 9 2 0
38 37 35 35
87 118 135 130
149 185 197 211
227 292 261 252
252 305 281 247
215 283 258 256
153 219 249 247
39 106 134 131
0 0 0 0
0 0 0 0
0 0 0 0
0 0 0 0
0 0 0 0
0 0 0 0
4 0 0 0
16 3 0 0
25 20 16 9
64 79 104 131
129 165 163 161
183 251 253 247
250 312 299 260
232 310 277 246
185 254 258 255
115 162 157 139
0 0 0 0
0 0 0 0
0 0 0 0
0 0 0 0
0 0 0 0
0 0 0 0
0 0 0 0
2 0 0 0
17 4 0 0
28 21 15 7
72 91 118 128
133 159 159 149
203 256 253 259
254 300 274 263
230 296 258 248
182 253 248 244
97 161 155 133
0 0 0 0
0 0 0 0
0 0 0 0
0 0 0 0
0 0 0 0
0 0 0 0
0 0 0 0
4 0 0 0
11 1 0 0
26 23 13 8
74 97 129 125
132 164 166 163
206 261 253 256
252 309 283 261
221 296 261 256
167 246 246 240
73 137 132 133
0 0 0 0
0 0 0 0
0 0 0 0
0 0 0 0
0 0 0 0
0 0 0 0
0 0 0 0
13 0 0 0
13 7 0 0
41 39 42 49
92 125 126 124
148 192 205 224
235 304 273 256
252 313 284 253
216 284 257 256
149 217 241 232
32 96 131 124
0 0 0 0
0 0 0 0
0 0 0 0
0 0 0 0
0 0 0 0
0 0 0 0
1 0 0 0
17 1 0 0
19 9 0 0
50 58 63 81
109 135 130 131
168 210 227 246
253 330 316 285
250 337 328 285
197 272 254 248
132 183 191 197
0 22 33 38
0 0 0 0
0 0 0 0
0 0 0 0
0 0 0 0
0 0 0 0
0 0 0 0
4 0 0 0
16 2 1 0
22 14 4 0
55 63 79 98
119 145 139 133
169 221 249 242
249 327 319 288
242 309 287 256
191 257 256 250
128 178 185 183
0 10 14 13
0 0 0 0
0 0 0 0
0 0 0 0
0 0 0 0
0 0 0 0
0 0 0 0
7 0 0 0
19 6 0 0
35 34 32 36
84 114 132 130
142 182 196 209
213 272 260 259
250 302 281 253
223 291 260 253
166 242 258 252
61 133 141 130
0 0 0 0
0 0 0 0
0 0 0 0
0 0 0 0
0 0 0 0
0 0 0 0
3 0 0 0
10 0 0 0
24 13 6 0
53 59 73 94
107 133 131 140
169 208 223 243
247 321 300 265
248 331 312 270
192 266 263 247
130 207 225 245
1 47 81 118
0 0 0 0
0 0 0 0
0 0 0 0
0 0 0 0
0 0 0 0
0 0 0 0
1 0 0 0
16 2 0 0
23 14 7 1
60 74 93 124
125 130 146 132
186 239 255 254
252 313 295 263
238 320 285 254
191 261 249 251
116 173 166 153
0 4 0 0
0 0 0 0
0 0 0 0
0 0 0 0
0 0 0 0
0 0 0 0
0 0 0 0
4 0 0 0
13 0 0 0
31 23 20 17
73 99 127 124
136 164 168 165
202 255 255 255
251 309 283 253
231 302 265 252
175 251 254 247
86 151 137 129
0 0 0 0
0 0 0 0
0 0 0 0
0 0 0 0
0 0 0 0
0 0 0 0
0 0 0 0
7 0 0 0
11 3 0 0
30 24 21 15
81 114 136 125
136 172 178 179
212 269 263 256
249 318 296 253
219 296 261 247
164 242 251 245
58 127 132 138
0 0 0 0
0 0 0 0
0 0 0 0
0 0 0 0
0 0 0 0
0 0 0 0
1 0 0 0
11 1 0 0
20 13 2 1
48 59 70 94
115 129 131 136
176 219 245 240
251 325 312 279
249 333 319 275
191 260 260 260
128 199 217 240
0 36 66 103
0 0 0 0
0 0 0 0
0 0 0 0
0 0 0 0
0 0 0 0
0 0 0 0
7 0 0 0
20 5 1 0
27 21 13 9
71 91 120 133
132 151 156 145
202 256 256 252
255 299 280 261
235 309 272 249
182 255 243 245
96 163 148 128
0 0 0 0
0 0 0 0
0 0 0 0
0 0 0 0
0 0 0 0
0 0 0 0
0 0 0 0
3 0 0 0
17 3 0 0
33 32 32 37
75 105 126 130
138 175 180 182
212 270 254 248
251 320 300 258
226 302 262 254
162 246 239 230
57 127 135 133
0 0 0 0
0 0 0 0
0 0 0 0
0 0 0 0
0 0 0 0
0 0 0 0
0 0 0 0
10 0 0 0
22 15 5 0
51 58 68 88
106 131 130 133
162 203 215 240
250 301 273 272
255 309 281 261
198 256 259 259
133 189 203 217
6 39 64 92
0 0 0 0
0 0 0 0
0 0 0 0
0 0 0 0
0 0 0 0
0 0 0 0
4 0 0 0
13 2 0 0
25 21 14 9
58 70 90 117
130 142 132 132
185 238 260 241
253 314 304 267
247 303 278 254
195 257 249 248
117 179 173 156
0 1 0 0
0 0 0 0
0 0 0 0
0 0 0 0
0 0 0 0
0 0 0 0
0 0 0 0
4 0 0 0
12 0 0 0
30 26 19 19
74 100 131 131
128 175 186 187
199 258 266 247
251 312 292 262
238 317 278 245
176 252 259 254
81 140 132 130
0 0 0 0
0 0 0 0
0 0 0 0
0 0 0 0
0 0 0 0
0 0 0 0
0 0 0 0
8 0 0 0
21 9 1 0
41 41 41 51
88 122 132 124
147 188 201 217
226 294 266 248
256 309 288 248
219 288 252 256
153 221 246 243
42 105 133 135
0 0 0 0
0 0 0 0
0 0 0 0
0 0 0 0
0 0 0 0
0 0 0 0
1 0 0 0
11 0 0 0
20 9 1 0
44 47 51 59
112 129 132 134
169 209 225 247
250 319 304 267
251 329 311 263
191 261 257 255
131 178 192 196
0 23 39 52
0 0 0 0
0 0 0 0
0 0 0 0
0 0 0 0
0 0 0 0
0 0 0 0
3 0 0 0
9 0 0 0
23 8 1 0
53 57 68 88
112 129 131 134
173 212 235 251
250 303 288 256
248 318 292 256
191 261 252 258
125 202 214 221
0 38 66 99
0 0 0 0
0 0 0 0
0 0 0 0
0 0 0 0
0 0 0 0
0 0 0 0
1 0 0 0
15 4 0 0
24 13 5 0
54 63 77 99
122 137 145 132
182 225 250 250
253 312 297 268
246 302 272 265
198 257 257 247
129 173 172 161
0 6 2 0
0 0 0 0
0 0 0 0
0 0 0 0
0 0 0 0
0 0 0 0
0 0 0 0
2 0 0 0
13 1 0 0
25 20 14 9
54 70 86 114
125 137 156 142
187 239 257 243
255 309 295 261
239 320 291 257
193 263 247 255
119 190 191 185
0 11 18 15
0 0 0 0
0 0 0 0
0 0 0 0
0 0 0 0
0 0 0 0
0 0 0 0
4 0 0 0
11 1 0 0
29 25 20 18
87 117 120 120
138 178 178 178
215 277 259 254
245 316 294 259
211 284 258 259
152 229 253 230
44 119 135 128
0 0 0 0
0 0 0 0
0 0 0 0
0 0 0 0
0 0 0 0
0 0 0 0
1 0 0 0
8 0 0 0
16 6 0 0
44 49 53 66
102 128 130 133
163 203 215 238
249 299 273 269
255 309 279 257
206 266 262 242
135 186 197 200
9 36 57 77
0 0 0 0
0 0 0 0
0 0 0 0
0 0 0 0
0 0 0 0
0 0 0 0
2 0 0 0
12 1 0 0
19 8 0 0
50 57 65 86
113 134 130 142
177 220 245 242
251 309 296 267
252 332 312 272
190 257 256 251
128 202 213 228
0 32 54 80
0 0 0 0
0 0 0 0
0 0 0 0
0 0 0 0
0 0 0 0
0 0 0 0
2 0 0 0
15 2 0 0
24 13 2 0
54 63 76 96
119 144 137 132
177 229 249 232
251 312 297 266
248 312 283 257
196 261 257 247
126 177 177 170
0 8 10 0
0 0 0 0
0 0 0 0
0 0 0 0
0 0 0 0
0 0 0 0
0 0 0 0
4 0 0 0
11 1 0 0
29 20 20 16
72 95 118 135
133 153 146 133
197 254 246 247
249 331 315 283
238 325 302 256
184 255 258 253
99 163 155 137
0 0 0 0
0 0 0 0
0 0 0 0
0 0 0 0
0 0 0 0
0 0 0 0
0 0 0 0
5 0 0 0
13 1 0 0
32 24 15 7
71 91 114 125
131 157 153 141
200 253 256 251
249 331 309 272
230 317 281 248
171 250 260 254
84 148 135 136
0 0 0 0
0 0 0 0
0 0 0 0
0 0 0 0
0 0 0 0
0 0 0 0
0 0 0 0
12 0 0 0
14 7 0 0
40 38 42 44
87 121 131 129
149 188 201 217
223 291 259 260
256 306 283 252
216 279 257 248
148 213 244 234
35 97 137 128
0 0 0 0
0 0 0 0
0 0 0 0
0 0 0 0
0 0 0 0
0 0 0 0
2 0 0 0
7 0 0 0
25 11 5 0
47 49 53 68
114 129 134 133
169 209 221 247
249 320 299 265
251 340 322 278
193 268 259 241
129 201 219 234
0 46 79 122
0 0 0 0
0 0 0 0
0 0 0 0
0 0 0 0
0 0 0 0
0 0 0 0
2 0 0 0
16 4 0 0
26 15 7 1
62 79 97 130
129 143 137 156
193 250 247 246
251 313 296 258
242 296 264 250
186 254 257 234
119 181 183 176
0 1 1 0
0 0 0 0
0 0 0 0
0 0 0 0
0 0 0 0
0 0 0 0
0 0 0 0
2 0 0 0
17 2 0 0
31 25 21 21
75 99 131 131
