#---------- INFO ----------#
#
# Sample Rate: 2000
# Channel per Board: 4
# Number of Boards: 1
# Bit per sample: 12
#
#---------- DATA ----------#
0.0, 0.0, 0.0, 0.0
0.011279296875, 0.0, 0.0, 0.0
0.01611328125, 0.011279296875, 0.008056640625, 0.0
0.030615234375, 0.03544921875, 0.030615234375, 0.0378662109375
0.095068359375, 0.107958984375, 0.105541992187, 0.078955078125
0.153076171875, 0.159521484375, 0.1740234375, 0.095068359375
0.207861328125, 0.21591796875, 0.233642578125, 0.131323242187
0.178857421875, 0.204638671875, 0.223974609375, 0.091845703125
0.153076171875, 0.173217773438, 0.194970703125, 0.062841796875
0.09990234375, 0.120849609375, 0.117626953125, 0.027392578125
0.0, 0.0, 0.0, 0.0
0.0, 0.0, 0.0, 0.0
0.0, 0.0, 0.0, 0.0
0.0, 0.0, 0.0, 0.0
0.0, 0.0, 0.0, 0.0
0.001611328125, 0.0, 0.0, 0.0
0.0, 0.0, 0.0, 0.0024169921875
0.0, 0.0, 0.0, 0.0
0.011279296875, 0.0, 0.0, 0.0
0.00966796875, 0.00322265625, 0.0, 0.0
0.030615234375, 0.0249755859375, 0.020947265625, 0.0249755859375
0.08056640625, 0.0894287109375, 0.105541992187, 0.0765380859375
0.140185546875, 0.140991210938, 0.150659179688, 0.085400390625
0.165966796875, 0.185302734375, 0.214306640625, 0.1224609375
0.198193359375, 0.22880859375, 0.23203125, 0.0926513671875
0.17724609375, 0.198193359375, 0.221557617188, 0.0829833984375
0.1095703125, 0.115209960937, 0.124072265625, 0.0322265625
0.0, 0.0, 0.0, 0.0
0.0, 0.0, 0.0, 0.0
0.0, 0.0, 0.0, 0.0
0.0, 0.0, 0.0, 0.0
0.0, 0.0, 0.0, 0.0
0.0, 0.0, 0.0, 0.0
0.0120849609375, 0.0, 0.0, 0.0
0.0, 0.0, 0.0, 0.0120849609375
0.00322265625, 0.0, 0.0, 0.014501953125
0.011279296875, 0.0056396484375, 0.001611328125, 0.0
0.024169921875, 0.020947265625, 0.0153076171875, 0.020947265625
0.06123046875, 0.0636474609375, 0.078955078125, 0.0668701171875
0.11923828125, 0.120849609375, 0.124072265625, 0.07734375
0.049951171875, 0.0636474609375, 0.072509765625, 0.0024169921875
0.0, 0.0, 0.0, 0.0
0.0, 0.0, 0.0, 0.0
0.0, 0.0, 0.0, 0.0
0.0, 0.0, 0.0, 0.0
0.0, 0.0, 0.0, 0.0
0.0, 0.0, 0.0, 0.0
0.0064453125, 0.0, 0.0, 0.0
0.0, 0.0, 0.0, 0.0088623046875
0.0, 0.0, 0.0, 0.0
0.020947265625, 0.011279296875, 0.0024169921875, 0.0040283203125
0.05478515625, 0.056396484375, 0.066064453125, 0.0
0.062841796875, 0.088623046875, 0.0958740234375, 0.11923828125
0.14501953125, 0.146630859375, 0.156298828125, 0.0958740234375
0.20625, 0.211889648437, 0.2255859375, 0.12568359375
0.17080078125, 0.191748046875, 0.214306640625, 0.0894287109375
0.17080078125, 0.191748046875, 0.215112304688, 0.078955078125
0.103125, 0.107958984375, 0.1095703125, 0.0314208984375
0.0, 0.0, 0.0, 0.0
0.0, 0.0, 0.0, 0.0
0.0, 0.0, 0.0, 0.0
0.0, 0.0, 0.0, 0.0
0.0, 0.0, 0.0, 0.0
0.008056640625, 0.0, 0.0, 0.0
0.0, 0.0, 0.0, 0.0040283203125
0.0, 0.0, 0.0, 0.0
0.008056640625, 0.0, 0.0, 0.0
0.00322265625, 0.0, 0.0, 0.0
0.024169921875, 0.0185302734375, 0.0120849609375, 0.01611328125
0.075732421875, 0.082177734375, 0.0966796875, 0.0668701171875
0.1353515625, 0.133740234375, 0.141796875, 0.0894287109375
0.17724609375, 0.191748046875, 0.219140625, 0.1224609375
0.18369140625, 0.211083984375, 0.207861328125, 0.088623046875
0.1740234375, 0.192553710938, 0.219140625, 0.08056640625
0.11279296875, 0.115209960937, 0.124072265625, 0.0378662109375
0.03544921875, 0.046728515625, 0.053173828125, 0.0
0.0, 0.0, 0.0, 0.0
0.0, 0.0, 0.0, 0.0
0.0, 0.0, 0.0, 0.0
0.0, 0.0, 0.0, 0.0
0.0, 0.0, 0.0, 0.0
0.0, 0.0, 0.0, 0.0024169921875
0.0, 0.0, 0.0, 0.0
0.008056640625, 0.0, 0.0, 0.0
0.0, 0.0, 0.0, 0.0
0.020947265625, 0.011279296875, 0.0024169921875, 0.0056396484375
0.06767578125, 0.072509765625, 0.085400390625, 0.0
0.069287109375, 0.101513671875, 0.111987304688, 0.115209960937
0.15146484375, 0.15791015625, 0.169189453125, 0.098291015625
0.211083984375, 0.223974609375, 0.240087890625, 0.116821289063
0.1740234375, 0.198193359375, 0.215112304688, 0.0966796875
0.15146484375, 0.165966796875, 0.182080078125, 0.059619140625
0.0837890625, 0.107958984375, 0.0990966796875, 0.024169921875
0.0, 0.0, 0.0, 0.0
0.0, 0.0, 0.0, 0.0
0.0, 0.0, 0.0, 0.0
0.0, 0.0, 0.0, 0.0
0.0, 0.0, 0.0, 0.0
0.011279296875, 0.0, 0.0, 0.0
0.0, 0.0, 0.0, 0.001611328125
0.0, 0.0, 0.0, 0.0
0.011279296875, 0.001611328125, 0.0, 0.0
0.00966796875, 0.004833984375, 0.001611328125, 0.0
0.030615234375, 0.0249755859375, 0.020947265625, 0.0249755859375
0.088623046875, 0.101513671875, 0.1224609375, 0.072509765625
0.14501953125, 0.146630859375, 0.1611328125, 0.0926513671875
0.20947265625, 0.217529296875, 0.227197265625, 0.12568359375
0.191748046875, 0.21591796875, 0.207861328125, 0.0894287109375
0.17724609375, 0.198193359375, 0.2255859375, 0.08056640625
0.103125, 0.107958984375, 0.111181640625, 0.0330322265625
0.0, 0.0, 0.0, 0.0
0.0, 0.0, 0.0, 0.0
0.0, 0.0, 0.0, 0.0
0.0, 0.0, 0.0, 0.0
0.0, 0.0, 0.0, 0.0
0.0, 0.0, 0.0, 0.0
0.008056640625, 0.0, 0.0, 0.0
0.0, 0.0, 0.0, 0.0
0.008056640625, 0.0, 0.0, 0.0
0.00322265625, 0.0, 0.0, 0.0
0.024169921875, 0.024169921875, 0.0153076171875, 0.020947265625
0.075732421875, 0.08701171875, 0.103125, 0.0708984375
0.140185546875, 0.140991210938, 0.149853515625, 0.0926513671875
0.17724609375, 0.198193359375, 0.2255859375, 0.124072265625
0.19013671875, 0.218334960937, 0.220751953125, 0.0958740234375
0.178857421875, 0.204638671875, 0.23203125, 0.088623046875
0.140185546875, 0.159521484375, 0.175634765625, 0.0539794921875
0.03544921875, 0.043505859375, 0.049951171875, 0.0
0.0, 0.0, 0.0, 0.0
0.0, 0.0, 0.0, 0.0
0.0, 0.0, 0.0, 0.0
0.0, 0.0, 0.0, 0.0
0.0, 0.0, 0.0, 0.0
0.008056640625, 0.0, 0.0, 0.0
0.0, 0.0, 0.0, 0.0
0.008056640625, 0.0, 0.0, 0.0
0.0, 0.0, 0.0, 0.0
0.024169921875, 0.017724609375, 0.0088623046875, 0.011279296875
0.069287109375, 0.075732421875, 0.091845703125, 0.0700927734375
0.13212890625, 0.128100585938, 0.143408203125, 0.0894287109375
0.178857421875, 0.188525390625, 0.207861328125, 0.118432617188
0.20947265625, 0.211889648437, 0.220751953125, 0.098291015625
0.185302734375, 0.211083984375, 0.201416015625, 0.0966796875
0.15146484375, 0.165966796875, 0.182080078125, 0.0580078125
0.0451171875, 0.062841796875, 0.0668701171875, 0.0
0.0, 0.0, 0.0, 0.0
0.0, 0.0, 0.0, 0.0
0.0, 0.0, 0.0, 0.0
0.0, 0.0, 0.0, 0.0
0.0, 0.0, 0.0, 0.0
0.004833984375, 0.0, 0.0, 0.0
0.0, 0.0, 0.0, 0.0
0.0, 0.0, 0.0, 0.0
0.008056640625, 0.0, 0.0, 0.0
0.01611328125, 0.011279296875, 0.0088623046875, 0.0
0.033837890625, 0.03544921875, 0.030615234375, 0.0378662109375
0.103125, 0.0958740234375, 0.1224609375, 0.078955078125
0.153076171875, 0.159521484375, 0.1740234375, 0.095068359375
0.211083984375, 0.218334960937, 0.23203125, 0.12890625
0.17724609375, 0.204638671875, 0.227197265625, 0.09990234375
0.17724609375, 0.20302734375, 0.23203125, 0.082177734375
0.0966796875, 0.120849609375, 0.117626953125, 0.02255859375
0.0, 0.0, 0.0, 0.0
0.0, 0.0, 0.0, 0.0
0.0, 0.0, 0.0, 0.0
0.0, 0.0, 0.0, 0.0
0.0, 0.0, 0.0, 0.0
0.0, 0.0, 0.0, 0.0
0.0, 0.0, 0.0, 0.0008056640625
0.0, 0.0, 0.0, 0.0
0.008056640625, 0.0, 0.0, 0.0
0.00966796875, 0.004833984375, 0.0024169921875, 0.0
0.027392578125, 0.0249755859375, 0.0185302734375, 0.0249755859375
0.088623046875, 0.101513671875, 0.120849609375, 0.082177734375
0.15146484375, 0.153076171875, 0.169189453125, 0.09345703125
0.20947265625, 0.21591796875, 0.23203125, 0.130517578125
0.20302734375, 0.231225585938, 0.233642578125, 0.103125
0.178857421875, 0.20625, 0.20625, 0.078955078125
0.11279296875, 0.115209960937, 0.117626953125, 0.02900390625
0.0, 0.0, 0.0, 0.0
0.0, 0.0, 0.0, 0.0
0.0, 0.0, 0.0, 0.0
0.0, 0.0, 0.0, 0.0
0.0, 0.0, 0.0, 0.0
0.0, 0.0, 0.0, 0.0
0.004833984375, 0.0, 0.0, 0.0
0.0, 0.0, 0.0, 0.001611328125
0.0, 0.0, 0.0, 0.0
0.011279296875, 0.0, 0.0, 0.0
0.02255859375, 0.017724609375, 0.0153076171875, 0.0
0.037060546875, 0.0443115234375, 0.0410888671875, 0.053173828125
0.11279296875, 0.108764648438, 0.118432617188, 0.085400390625
0.16435546875, 0.166772460938, 0.182080078125, 0.0990966796875
0.22236328125, 0.231225585938, 0.246533203125, 0.1224609375
0.17724609375, 0.20625, 0.202221679687, 0.098291015625
0.14501953125, 0.160327148438, 0.175634765625, 0.059619140625
0.08056640625, 0.101513671875, 0.117626953125, 0.0217529296875
0.0, 0.0, 0.0, 0.0
0.0, 0.0, 0.0, 0.0
0.0, 0.0, 0.0, 0.0
0.0, 0.0, 0.0, 0.0
0.0, 0.0, 0.0, 0.0
0.004833984375, 0.0, 0.0, 0.0
0.0, 0.0, 0.0, 0.0
0.0, 0.0, 0.0, 0.0
0.011279296875, 0.0, 0.0, 0.0
0.01611328125, 0.0120849609375, 0.012890625, 0.0
0.033837890625, 0.033837890625, 0.0281982421875, 0.037060546875
0.103125, 0.0958740234375, 0.124072265625, 0.078955078125
0.153076171875, 0.159521484375, 0.175634765625, 0.098291015625
0.20947265625, 0.218334960937, 0.233642578125, 0.127294921875
0.1869140625, 0.211083984375, 0.207861328125, 0.101513671875
0.178857421875, 0.20625, 0.194970703125, 0.0829833984375
0.103125, 0.107958984375, 0.111181640625, 0.02900390625
0.0, 0.0, 0.0, 0.0
0.0, 0.0, 0.0, 0.0
0.0, 0.0, 0.0, 0.0
0.0, 0.0, 0.0, 0.0
0.0, 0.0, 0.0, 0.0
0.001611328125, 0.0, 0.0, 0.0
0.049951171875, 0.0636474609375, 0.072509765625, 0.0024169921875
0.0, 0.0, 0.0, 0.0
0.0, 0.0, 0.0, 0.0
0.0, 0.0, 0.0, 0.0
0.0, 0.0, 0.0, 0.0
0.0, 0.0, 0.0, 0.0
0.0, 0.0, 0.0, 0.0
0.0064453125, 0.0, 0.0, 0.0
0.0, 0.0, 0.0, 0.0088623046875
0.0, 0.0, 0.0, 0.0
0.020947265625, 0.011279296875, 0.0024169921875, 0.0040283203125
0.05478515625, 0.056396484375, 0.066064453125, 0.0
0.062841796875, 0.088623046875, 0.0958740234375, 0.11923828125
0.14501953125, 0.146630859375, 0.156298828125, 0.0958740234375
0.20625, 0.211889648437, 0.2255859375, 0.12568359375
0.17080078125, 0.191748046875, 0.214306640625, 0.0894287109375
0.17080078125, 0.191748046875, 0.215112304688, 0.078955078125
0.103125, 0.107958984375, 0.1095703125, 0.0314208984375
0.0, 0.0, 0.0, 0.0
0.0, 0.0, 0.0, 0.0
0.0, 0.0, 0.0, 0.0
0.0, 0.0, 0.0, 0.0
0.0, 0.0, 0.0, 0.0
0.008056640625, 0.0, 0.0, 0.0
0.0, 0.0, 0.0, 0.0040283203125
0.0, 0.0, 0.0, 0.0
0.008056640625, 0.0, 0.0, 0.0
0.00322265625, 0.0, 0.0, 0.0
0.024169921875, 0.0185302734375, 0.0120849609375, 0.01611328125
0.075732421875, 0.082177734375, 0.0966796875, 0.0668701171875
0.1353515625, 0.133740234375, 0.141796875, 0.0894287109375
0.17724609375, 0.191748046875, 0.219140625, 0.1224609375
0.18369140625, 0.211083984375, 0.207861328125, 0.088623046875
0.1740234375, 0.192553710938, 0.219140625, 0.08056640625
0.11279296875, 0.115209960937, 0.124072265625, 0.0378662109375
0.03544921875, 0.046728515625, 0.053173828125, 0.0
0.0, 0.0, 0.0, 0.0
0.0, 0.0, 0.0, 0.0
0.0, 0.0, 0.0, 0.0
0.0, 0.0, 0.0, 0.0
0.0, 0.0, 0.0, 0.0
0.0, 0.0, 0.0, 0.0024169921875
0.0, 0.0, 0.0, 0.0
0.008056640625, 0.0, 0.0, 0.0
0.0, 0.0, 0.0, 0.0
0.020947265625, 0.011279296875, 0.0024169921875, 0.0056396484375
0.06767578125, 0.072509765625, 0.085400390625, 0.0
0.069287109375, 0.101513671875, 0.111987304688, 0.115209960937
0.15146484375, 0.15791015625, 0.169189453125, 0.098291015625
0.211083984375, 0.223974609375, 0.240087890625, 0.116821289063
0.1740234375, 0.198193359375, 0.215112304688, 0.0966796875
0.15146484375, 0.165966796875, 0.182080078125, 0.059619140625
0.0837890625, 0.107958984375, 0.0990966796875, 0.024169921875
0.0, 0.0, 0.0, 0.0
0.0, 0.0, 0.0, 0.0
0.0, 0.0, 0.0, 0.0
0.0, 0.0, 0.0, 0.0
0.0, 0.0, 0.0, 0.0
0.011279296875, 0.0, 0.0, 0.0
0.0, 0.0, 0.0, 0.001611328125
0.0, 0.0, 0.0, 0.0
0.011279296875, 0.001611328125, 0.0, 0.0
0.00966796875, 0.004833984375, 0.001611328125, 0.0
0.030615234375, 0.0249755859375, 0.020947265625, 0.0249755859375
0.088623046875, 0.101513671875, 0.1224609375, 0.072509765625
0.14501953125, 0.146630859375, 0.1611328125, 0.0926513671875
0.20947265625, 0.217529296875, 0.227197265625, 0.12568359375
0.191748046875, 0.21591796875, 0.207861328125, 0.0894287109375
0.17724609375, 0.198193359375, 0.2255859375, 0.08056640625
0.103125, 0.107958984375, 0.111181640625, 0.0330322265625
0.0, 0.0, 0.0, 0.0
0.0, 0.0, 0.0, 0.0
0.0, 0.0, 0.0, 0.0
0.0, 0.0, 0.0, 0.0
0.0, 0.0, 0.0, 0.0
0.0, 0.0, 0.0, 0.0
0.008056640625, 0.0, 0.0, 0.0
0.0, 0.0, 0.0, 0.0
0.008056640625, 0.0, 0.0, 0.0
0.00322265625, 0.0, 0.0, 0.0
0.024169921875, 0.024169921875, 0.0153076171875, 0.020947265625
0.075732421875, 0.08701171875, 0.103125, 0.0708984375
0.140185546875, 0.140991210938, 0.149853515625, 0.0926513671875
0.17724609375, 0.198193359375, 0.2255859375, 0.124072265625
0.19013671875, 0.218334960937, 0.220751953125, 0.0958740234375
0.178857421875, 0.204638671875, 0.23203125, 0.088623046875
0.140185546875, 0.159521484375, 0.175634765625, 0.0539794921875
0.03544921875, 0.043505859375, 0.049951171875, 0.0
0.0, 0.0, 0.0, 0.0
0.0, 0.0, 0.0, 0.0
0.0, 0.0, 0.0, 0.0
0.0, 0.0, 0.0, 0.0
0.0, 0.0, 0.0, 0.0
0.008056640625, 0.0, 0.0, 0.0
0.0, 0.0, 0.0, 0.0
0.008056640625, 0.0, 0.0, 0.0
0.0, 0.0, 0.0, 0.0
0.024169921875, 0.017724609375, 0.0088623046875, 0.011279296875
0.069287109375, 0.075732421875, 0.091845703125, 0.0700927734375
0.13212890625, 0.128100585938, 0.143408203125, 0.0894287109375
0.178857421875, 0.188525390625, 0.207861328125, 0.118432617188
0.20947265625, 0.211889648437, 0.220751953125, 0.098291015625
0.185302734375, 0.211083984375, 0.201416015625, 0.0966796875
0.15146484375, 0.165966796875, 0.182080078125, 0.0580078125
0.0451171875, 0.062841796875, 0.0668701171875, 0.0
0.0, 0.0, 0.0, 0.0
0.0, 0.0, 0.0, 0.0
0.0, 0.0, 0.0, 0.0
0.0, 0.0, 0.0, 0.0
0.0, 0.0, 0.0, 0.0
0.004833984375, 0.0, 0.0, 0.0
0.0, 0.0, 0.0, 0.0
0.0, 0.0, 0.0, 0.0
0.008056640625, 0.0, 0.0, 0.0
0.01611328125, 0.011279296875, 0.0088623046875, 0.0
0.033837890625, 0.03544921875, 0.030615234375, 0.0378662109375
0.103125, 0.0958740234375, 0.1224609375, 0.078955078125
0.153076171875, 0.159521484375, 0.1740234375, 0.095068359375
0.211083984375, 0.218334960937, 0.23203125, 0.12890625
0.17724609375, 0.204638671875, 0.227197265625, 0.09990234375
0.17724609375, 0.20302734375, 0.23203125, 0.082177734375
0.0966796875, 0.120849609375, 0.117626953125, 0.02255859375
0.0, 0.0, 0.0, 0.0
0.0, 0.0, 0.0, 0.0
0.0, 0.0, 0.0, 0.0
0.0, 0.0, 0.0, 0.0
0.0, 0.0, 0.0, 0.0
0.0, 0.0, 0.0, 0.0
0.0, 0.0, 0.0, 0.0008056640625
0.0, 0.0, 0.0, 0.0
0.008056640625, 0.0, 0.0, 0.0
0.00966796875, 0.004833984375, 0.0024169921875, 0.0
0.027392578125, 0.0249755859375, 0.0185302734375, 0.0249755859375
0.088623046875, 0.101513671875, 0.120849609375, 0.082177734375
0.15146484375, 0.153076171875, 0.169189453125, 0.09345703125
0.20947265625, 0.21591796875, 0.23203125, 0.130517578125
0.20302734375, 0.231225585938, 0.233642578125, 0.103125
0.178857421875, 0.20625, 0.20625, 0.078955078125
0.11279296875, 0.115209960937, 0.117626953125, 0.02900390625
0.0, 0.0, 0.0, 0.0
0.0, 0.0, 0.0, 0.0
0.0, 0.0, 0.0, 0.0
0.0, 0.0, 0.0, 0.0
0.0, 0.0, 0.0, 0.0
0.0, 0.0, 0.0, 0.0
0.004833984375, 0.0, 0.0, 0.0
0.0, 0.0, 0.0, 0.001611328125
0.0, 0.0, 0.0, 0.0
0.011279296875, 0.0, 0.0, 0.0
0.02255859375, 0.017724609375, 0.0153076171875, 0.0
0.037060546875, 0.0443115234375, 0.0410888671875, 0.053173828125
0.11279296875, 0.108764648438, 0.118432617188, 0.085400390625
0.16435546875, 0.166772460938, 0.182080078125, 0.0990966796875
0.22236328125, 0.231225585938, 0.246533203125, 0.1224609375
0.17724609375, 0.20625, 0.202221679687, 0.098291015625
0.14501953125, 0.160327148438, 0.175634765625, 0.059619140625
0.08056640625, 0.101513671875, 0.117626953125, 0.0217529296875
0.0, 0.0, 0.0, 0.0
0.0, 0.0, 0.0, 0.0
0.0, 0.0, 0.0, 0.0
0.0, 0.0, 0.0, 0.0
0.0, 0.0, 0.0, 0.0
0.004833984375, 0.0, 0.0, 0.0
0.0, 0.0, 0.0, 0.0
0.0, 0.0, 0.0, 0.0
0.011279296875, 0.0, 0.0, 0.0
0.01611328125, 0.0120849609375, 0.012890625, 0.0
0.033837890625, 0.033837890625, 0.0281982421875, 0.037060546875
0.103125, 0.0958740234375, 0.124072265625, 0.078955078125
0.153076171875, 0.159521484375, 0.175634765625, 0.098291015625
0.20947265625, 0.218334960937, 0.233642578125, 0.127294921875
0.1869140625, 0.211083984375, 0.207861328125, 0.101513671875
0.178857421875, 0.20625, 0.194970703125, 0.0829833984375
0.103125, 0.107958984375, 0.111181640625, 0.02900390625
0.0, 0.0, 0.0, 0.0
0.0, 0.0, 0.0, 0.0
0.0, 0.0, 0.0, 0.0
0.0, 0.0, 0.0, 0.0
0.0, 0.0, 0.0, 0.0
0.001611328125, 0.0, 0.0, 0.0
0.049951171875, 0.0636474609375, 0.072509765625, 0.0024169921875
0.0, 0.0, 0.0, 0.0
0.0, 0.0, 0.0, 0.0
0.0, 0.0, 0.0, 0.0
0.0, 0.0, 0.0, 0.0
0.0, 0.0, 0.0, 0.0
0.0, 0.0, 0.0, 0.0
0.0064453125, 0.0, 0.0, 0.0
0.0, 0.0, 0.0, 0.0088623046875
0.0, 0.0, 0.0, 0.0
0.020947265625, 0.011279296875, 0.0024169921875, 0.0040283203125
0.05478515625, 0.056396484375, 0.066064453125, 0.0
0.062841796875, 0.088623046875, 0.0958740234375, 0.11923828125
0.14501953125, 0.146630859375, 0.156298828125, 0.0958740234375
0.20625, 0.211889648437, 0.2255859375, 0.12568359375
0.17080078125, 0.191748046875, 0.214306640625, 0.0894287109375
0.17080078125, 0.191748046875, 0.215112304688, 0.078955078125
0.103125, 0.107958984375, 0.1095703125, 0.0314208984375
0.0, 0.0, 0.0, 0.0
0.0, 0.0, 0.0, 0.0
0.0, 0.0, 0.0, 0.0
0.0, 0.0, 0.0, 0.0
0.0, 0.0, 0.0, 0.0
0.008056640625, 0.0, 0.0, 0.0
0.0, 0.0, 0.0, 0.0040283203125
0.0, 0.0, 0.0, 0.0
0.008056640625, 0.0, 0.0, 0.0
0.00322265625, 0.0, 0.0, 0.0
0.024169921875, 0.0185302734375, 0.0120849609375, 0.01611328125
0.075732421875, 0.082177734375, 0.0966796875, 0.0668701171875
0.1353515625, 0.133740234375, 0.141796875, 0.0894287109375
0.17724609375, 0.191748046875, 0.219140625, 0.1224609375
0.18369140625, 0.211083984375, 0.207861328125, 0.088623046875
0.1740234375, 0.192553710938, 0.219140625, 0.08056640625
0.11279296875, 0.115209960937, 0.124072265625, 0.0378662109375
0.03544921875, 0.046728515625, 0.053173828125, 0.0
0.0, 0.0, 0.0, 0.0
0.0, 0.0, 0.0, 0.0
0.0, 0.0, 0.0, 0.0
0.0, 0.0, 0.0, 0.0
0.0, 0.0, 0.0, 0.0
0.0, 0.0, 0.0, 0.0024169921875
0.0, 0.0, 0.0, 0.0
0.008056640625, 0.0, 0.0, 0.0
0.0, 0.0, 0.0, 0.0
0.020947265625, 0.011279296875, 0.0024169921875, 0.0056396484375
0.06767578125, 0.072509765625, 0.085400390625, 0.0
0.069287109375, 0.101513671875, 0.111987304688, 0.115209960937
0.15146484375, 0.15791015625, 0.169189453125, 0.098291015625
0.211083984375, 0.223974609375, 0.240087890625, 0.116821289063
0.1740234375, 0.198193359375, 0.215112304688, 0.0966796875
0.15146484375, 0.165966796875, 0.182080078125, 0.059619140625
0.0837890625, 0.107958984375, 0.0990966796875, 0.024169921875
0.0, 0.0, 0.0, 0.0
0.0, 0.0, 0.0, 0.0
0.0, 0.0, 0.0, 0.0
0.0, 0.0, 0.0, 0.0
0.0, 0.0, 0.0, 0.0
0.011279296875, 0.0, 0.0, 0.0
0.0, 0.0, 0.0, 0.001611328125
0.0, 0.0, 0.0, 0.0
0.011279296875, 0.001611328125, 0.0, 0.0
0.00966796875, 0.004833984375, 0.001611328125, 0.0
0.030615234375, 0.0249755859375, 0.020947265625, 0.0249755859375
0.088623046875, 0.101513671875, 0.1224609375, 0.072509765625
0.14501953125, 0.146630859375, 0.1611328125, 0.0926513671875
0.20947265625, 0.217529296875, 0.227197265625, 0.12568359375
0.191748046875, 0.21591796875, 0.207861328125, 0.0894287109375
0.17724609375, 0.198193359375, 0.2255859375, 0.08056640625
0.103125, 0.107958984375, 0.111181640625, 0.0330322265625
0.0, 0.0, 0.0, 0.0
0.0, 0.0, 0.0, 0.0
0.0, 0.0, 0.0, 0.0
0.0, 0.0, 0.0, 0.0
0.0, 0.0, 0.0, 0.0
0.0, 0.0, 0.0, 0.0
0.008056640625, 0.0, 0.0, 0.0
0.0, 0.0, 0.0, 0.0
0.008056640625, 0.0, 0.0, 0.0
0.00322265625, 0.0, 0.0, 0.0
0.024169921875, 0.024169921875, 0.0153076171875, 0.020947265625
0.075732421875, 0.08701171875, 0.103125, 0.0708984375
0.140185546875, 0.140991210938, 0.149853515625, 0.0926513671875
0.17724609375, 0.198193359375, 0.2255859375, 0.124072265625
0.19013671875, 0.218334960937, 0.220751953125, 0.0958740234375
0.178857421875, 0.204638671875, 0.23203125, 0.088623046875
0.140185546875, 0.159521484375, 0.175634765625, 0.0539794921875
0.03544921875, 0.043505859375, 0.049951171875, 0.0
0.0, 0.0, 0.0, 0.0
0.0, 0.0, 0.0, 0.0
0.0, 0.0, 0.0, 0.0
0.0, 0.0, 0.0, 0.0
0.0, 0.0, 0.0, 0.0
0.008056640625, 0.0, 0.0, 0.0
0.0, 0.0, 0.0, 0.0
0.008056640625, 0.0, 0.0, 0.0
0.0, 0.0, 0.0, 0.0
0.024169921875, 0.017724609375, 0.0088623046875, 0.011279296875
0.069287109375, 0.075732421875, 0.091845703125, 0.0700927734375
0.13212890625, 0.128100585938, 0.143408203125, 0.0894287109375
0.178857421875, 0.188525390625, 0.207861328125, 0.118432617188
0.20947265625, 0.211889648437, 0.220751953125, 0.098291015625
0.185302734375, 0.211083984375, 0.201416015625, 0.0966796875
0.15146484375, 0.165966796875, 0.182080078125, 0.0580078125
0.0451171875, 0.062841796875, 0.0668701171875, 0.0
0.0, 0.0, 0.0, 0.0
0.0, 0.0, 0.0, 0.0
0.0, 0.0, 0.0, 0.0
0.0, 0.0, 0.0, 0.0
0.0, 0.0, 0.0, 0.0
0.004833984375, 0.0, 0.0, 0.0
0.0, 0.0, 0.0, 0.0
0.0, 0.0, 0.0, 0.0
0.008056640625, 0.0, 0.0, 0.0
0.01611328125, 0.011279296875, 0.0088623046875, 0.0
0.033837890625, 0.03544921875, 0.030615234375, 0.0378662109375
0.103125, 0.0958740234375, 0.1224609375, 0.078955078125
0.153076171875, 0.159521484375, 0.1740234375, 0.095068359375
0.211083984375, 0.218334960937, 0.23203125, 0.12890625
0.17724609375, 0.204638671875, 0.227197265625, 0.09990234375
0.17724609375, 0.20302734375, 0.23203125, 0.082177734375
0.0966796875, 0.120849609375, 0.117626953125, 0.02255859375
0.0, 0.0, 0.0, 0.0
0.0, 0.0, 0.0, 0.0
0.0, 0.0, 0.0, 0.0
0.0, 0.0, 0.0, 0.0
0.0, 0.0, 0.0, 0.0
0.0, 0.0, 0.0, 0.0
0.0, 0.0, 0.0, 0.0008056640625
0.0, 0.0, 0.0, 0.0
0.008056640625, 0.0, 0.0, 0.0
0.00966796875, 0.004833984375, 0.0024169921875, 0.0
0.027392578125, 0.0249755859375, 0.0185302734375, 0.0249755859375
0.088623046875, 0.101513671875, 0.120849609375, 0.082177734375
0.15146484375, 0.153076171875, 0.169189453125, 0.09345703125
0.20947265625, 0.21591796875, 0.23203125, 0.130517578125
0.20302734375, 0.231225585938, 0.233642578125, 0.103125
0.178857421875, 0.20625, 0.20625, 0.078955078125
0.11279296875, 0.115209960937, 0.117626953125, 0.02900390625
0.0, 0.0, 0.0, 0.0
0.0, 0.0, 0.0, 0.001611328125
0.0, 0.0, 0.0, 0.0
0.0378662109375, 0.0580078125, 0.0588134765625, 0.0717041015625
0.06123046875, 0.069287109375, 0.0797607421875, 0.0
0.046728515625, 0.069287109375, 0.07734375, 0.095068359375
0.095068359375, 0.11279296875, 0.111181640625, 0.053173828125
0.08701171875, 0.107958984375, 0.0990966796875, 0.043505859375
0.07412109375, 0.088623046875, 0.104736328125, 0.033837890625
0.06123046875, 0.0700927734375, 0.0837890625, 0.0322265625
0.02900390625, 0.037060546875, 0.040283203125, 0.0120849609375
0.0, 0.0, 0.0, 0.00966796875
0.0, 0.0, 0.0, 0.011279296875
0.0, 0.0, 0.0, 0.0
0.011279296875, 0.0, 0.0, 0.0
0.00966796875, 0.004833984375, 0.001611328125, 0.0
0.024169921875, 0.02255859375, 0.0153076171875, 0.0185302734375
0.024169921875, 0.024169921875, 0.02578125, 0.024169921875
0.0322265625, 0.033837890625, 0.033837890625, 0.027392578125
0.0322265625, 0.03544921875, 0.040283203125, 0.027392578125
0.049951171875, 0.056396484375, 0.064453125, 0.0346435546875
0.0580078125, 0.0636474609375, 0.07734375, 0.040283203125
0.08056640625, 0.0894287109375, 0.105541992187, 0.053173828125
0.09990234375, 0.115209960937, 0.111987304688, 0.0539794921875
0.075732421875, 0.095068359375, 0.111181640625, 0.0443115234375
0.06767578125, 0.082177734375, 0.098291015625, 0.033837890625
0.0451171875, 0.056396484375, 0.064453125, 0.02255859375
0.01611328125, 0.0185302734375, 0.020947265625, 0.00966796875
0.0, 0.0, 0.0, 0.0064453125
0.0, 0.0, 0.0, 0.008056640625
0.0, 0.0, 0.0, 0.0
0.0120849609375, 0.0, 0.0, 0.0
0.017724609375, 0.0120849609375, 0.014501953125, 0.0
0.024169921875, 0.024169921875, 0.017724609375, 0.02255859375
0.024169921875, 0.0249755859375, 0.0281982421875, 0.027392578125
0.030615234375, 0.033837890625, 0.038671875, 0.027392578125
0.04189453125, 0.043505859375, 0.0475341796875, 0.0322265625
0.0580078125, 0.0636474609375, 0.078955078125, 0.038671875
0.07412109375, 0.082177734375, 0.0966796875, 0.049951171875
0.09990234375, 0.115209960937, 0.117626953125, 0.049951171875
0.0837890625, 0.104736328125, 0.098291015625, 0.04833984375
0.0708984375, 0.0829833984375, 0.098291015625, 0.0346435546875
0.05478515625, 0.062841796875, 0.07734375, 0.027392578125
0.02255859375, 0.0249755859375, 0.027392578125, 0.011279296875
0.0, 0.0, 0.0, 0.008056640625
0.0, 0.0, 0.0, 0.0
0.011279296875, 0.0, 0.0, 0.0
0.0, 0.0, 0.0, 0.0
0.0120849609375, 0.0, 0.0, 0.0
0.0193359375, 0.017724609375, 0.0153076171875, 0.0
0.024169921875, 0.024169921875, 0.020947265625, 0.0298095703125
0.024169921875, 0.030615234375, 0.033837890625, 0.027392578125
0.03544921875, 0.037060546875, 0.040283203125, 0.027392578125
0.04189453125, 0.0443115234375, 0.053173828125, 0.033837890625
0.06123046875, 0.0700927734375, 0.085400390625, 0.040283203125
0.082177734375, 0.095068359375, 0.116015625, 0.0572021484375
0.09990234375, 0.120849609375, 0.117626953125, 0.04833984375
0.075732421875, 0.0894287109375, 0.104736328125, 0.0443115234375
0.06767578125, 0.0765380859375, 0.0926513671875, 0.033837890625
0.04189453125, 0.04833984375, 0.053173828125, 0.020947265625
0.011279296875, 0.017724609375, 0.0153076171875, 0.00966796875
0.0, 0.0, 0.0, 0.0064453125
0.0, 0.0, 0.0, 0.0
0.011279296875, 0.0, 0.0, 0.0
0.0, 0.0, 0.0, 0.0
0.024169921875, 0.011279296875, 0.0024169921875, 0.008056640625
0.02255859375, 0.02255859375, 0.020947265625, 0.0281982421875
0.0322265625, 0.033837890625, 0.033837890625, 0.024169921875
0.030615234375, 0.0314208984375, 0.038671875, 0.030615234375
0.037060546875, 0.043505859375, 0.0507568359375, 0.0346435546875
0.05478515625, 0.062841796875, 0.072509765625, 0.03544921875
0.06767578125, 0.075732421875, 0.090234375, 0.046728515625
0.0966796875, 0.108764648438, 0.1095703125, 0.0572021484375
0.09345703125, 0.114404296875, 0.1095703125, 0.040283203125
0.06767578125, 0.08701171875, 0.104736328125, 0.0410888671875
0.06123046875, 0.07412109375, 0.085400390625, 0.0346435546875
0.0322265625, 0.037060546875, 0.040283203125, 0.01611328125
0.00322265625, 0.004833984375, 0.001611328125, 0.008056640625
0.0, 0.0, 0.0, 0.0088623046875
0.0, 0.0, 0.0, 0.0
0.011279296875, 0.0, 0.0, 0.0
0.00322265625, 0.0, 0.0, 0.0
0.024169921875, 0.017724609375, 0.011279296875, 0.0120849609375
0.024169921875, 0.024169921875, 0.02578125, 0.024169921875
0.02900390625, 0.030615234375, 0.033837890625, 0.02578125
0.0322265625, 0.03544921875, 0.038671875, 0.03544921875
0.049951171875, 0.053173828125, 0.056396484375, 0.0378662109375
0.05478515625, 0.062841796875, 0.072509765625, 0.038671875
0.07412109375, 0.0829833984375, 0.098291015625, 0.049951171875
0.0966796875, 0.114404296875, 0.111987304688, 0.0507568359375
0.07412109375, 0.0894287109375, 0.105541992187, 0.043505859375
0.06767578125, 0.0765380859375, 0.0926513671875, 0.0378662109375
0.0451171875, 0.05478515625, 0.064453125, 0.02578125
0.02255859375, 0.02255859375, 0.02578125, 0.0169189453125
0.0, 0.0, 0.0, 0.0120849609375
0.0, 0.0, 0.0, 0.012890625
0.0, 0.0, 0.0, 0.0
0.020947265625, 0.0, 0.0, 0.0
0.017724609375, 0.0120849609375, 0.012890625, 0.0
0.027392578125, 0.024169921875, 0.017724609375, 0.024169921875
0.024169921875, 0.0249755859375, 0.027392578125, 0.0298095703125
0.030615234375, 0.0314208984375, 0.033837890625, 0.02578125
0.03544921875, 0.037060546875, 0.040283203125, 0.0378662109375
0.049951171875, 0.056396484375, 0.064453125, 0.037060546875
0.0580078125, 0.0636474609375, 0.078955078125, 0.040283203125
0.095068359375, 0.108764648438, 0.105541992187, 0.049951171875
0.08701171875, 0.10634765625, 0.0966796875, 0.043505859375
0.06767578125, 0.082177734375, 0.098291015625, 0.0410888671875
0.056396484375, 0.06767578125, 0.078955078125, 0.0322265625
0.04189453125, 0.04833984375, 0.053173828125, 0.0265869140625
0.01611328125, 0.0185302734375, 0.0193359375, 0.011279296875
0.0, 0.0, 0.0, 0.0064453125
0.0, 0.0, 0.0, 0.011279296875
0.0, 0.0, 0.0, 0.0
0.017724609375, 0.0, 0.0, 0.0
0.02255859375, 0.0185302734375, 0.0193359375, 0.0
0.027392578125, 0.0249755859375, 0.02578125, 0.030615234375
0.024169921875, 0.0249755859375, 0.0281982421875, 0.02578125
0.030615234375, 0.0314208984375, 0.0346435546875, 0.027392578125
0.03544921875, 0.0378662109375, 0.046728515625, 0.030615234375
0.05478515625, 0.062841796875, 0.0733154296875, 0.038671875
0.07412109375, 0.0829833984375, 0.0990966796875, 0.04833984375
0.09990234375, 0.115209960937, 0.1095703125, 0.046728515625
0.075732421875, 0.0958740234375, 0.105541992187, 0.0410888671875
0.062841796875, 0.075732421875, 0.091845703125, 0.033837890625
0.049951171875, 0.06123046875, 0.0708984375, 0.027392578125
0.033837890625, 0.0378662109375, 0.0451171875, 0.014501953125
0.0, 0.0, 0.0, 0.0120849609375
0.0, 0.0, 0.0, 0.0
0.0120849609375, 0.0, 0.0, 0.0
0.0, 0.0, 0.0, 0.0
0.020947265625, 0.00966796875, 0.0024169921875, 0.008056640625
0.02255859375, 0.02255859375, 0.02578125, 0.0
0.027392578125, 0.0249755859375, 0.02578125, 0.0314208984375
0.024169921875, 0.030615234375, 0.033837890625, 0.02578125
0.030615234375, 0.030615234375, 0.0346435546875, 0.027392578125
0.049951171875, 0.056396484375, 0.064453125, 0.0378662109375
0.06123046875, 0.069287109375, 0.078955078125, 0.0443115234375
0.082177734375, 0.095068359375, 0.116015625, 0.05478515625
0.095068359375, 0.115209960937, 0.1095703125, 0.040283203125
0.0708984375, 0.088623046875, 0.104736328125, 0.038671875
0.06123046875, 0.07412109375, 0.085400390625, 0.0322265625
0.043505859375, 0.049951171875, 0.059619140625, 0.02578125
0.00966796875, 0.011279296875, 0.008056640625, 0.011279296875
0.0, 0.0, 0.0, 0.008056640625
0.0, 0.0, 0.0, 0.0
0.017724609375, 0.0, 0.0, 0.0
0.0, 0.0, 0.0, 0.0
0.024169921875, 0.020947265625, 0.0120849609375, 0.0185302734375
0.02255859375, 0.024169921875, 0.027392578125, 0.0314208984375
0.02900390625, 0.030615234375, 0.0346435546875, 0.024169921875
0.02900390625, 0.030615234375, 0.0346435546875, 0.0314208984375
0.043505859375, 0.04833984375, 0.053173828125, 0.033837890625
0.05478515625, 0.062841796875, 0.072509765625, 0.038671875
0.06767578125, 0.075732421875, 0.090234375, 0.0451171875
0.088623046875, 0.10634765625, 0.103125, 0.049951171875
0.08056640625, 0.101513671875, 0.116015625, 0.037060546875
0.062841796875, 0.0765380859375, 0.091845703125, 0.0378662109375
0.049951171875, 0.06123046875, 0.0708984375, 0.02900390625
0.024169921875, 0.030615234375, 0.038671875, 0.014501953125
0.00322265625, 0.00322265625, 0.001611328125, 0.0120849609375
0.0, 0.0, 0.0, 0.011279296875
0.0, 0.0, 0.0, 0.0
0.017724609375, 0.0, 0.0, 0.0
0.011279296875, 0.0056396484375, 0.008056640625, 0.0
0.027392578125, 0.024169921875, 0.017724609375, 0.02255859375
0.02900390625, 0.030615234375, 0.0322265625, 0.024169921875
0.02900390625, 0.030615234375, 0.033837890625, 0.02578125
0.03544921875, 0.037060546875, 0.040283203125, 0.027392578125
0.04833984375, 0.053173828125, 0.059619140625, 0.0346435546875
0.0580078125, 0.0636474609375, 0.072509765625, 0.037060546875
0.075732421875, 0.088623046875, 0.103125, 0.05478515625
0.09990234375, 0.115209960937, 0.1095703125, 0.046728515625
0.0708984375, 0.088623046875, 0.104736328125, 0.0410888671875
0.062841796875, 0.075732421875, 0.090234375, 0.0346435546875
0.0451171875, 0.053173828125, 0.059619140625, 0.0217529296875
0.0193359375, 0.024169921875, 0.027392578125, 0.0120849609375
0.0, 0.0, 0.0, 0.008056640625
0.0, 0.0, 0.0, 0.0153076171875
0.0, 0.0, 0.0, 0.0
0.020947265625, 0.0, 0.0, 0.0
0.02255859375, 0.0185302734375, 0.0193359375, 0.0
0.027392578125, 0.0249755859375, 0.020947265625, 0.027392578125
0.030615234375, 0.030615234375, 0.033837890625, 0.027392578125
0.03544921875, 0.037060546875, 0.040283203125, 0.027392578125
0.037060546875, 0.04189453125, 0.046728515625, 0.0322265625
0.056396484375, 0.0636474609375, 0.072509765625, 0.038671875
0.07412109375, 0.082177734375, 0.0966796875, 0.046728515625
0.09345703125, 0.108764648438, 0.111181640625, 0.046728515625
0.08056640625, 0.09990234375, 0.111181640625, 0.037060546875
0.06767578125, 0.0765380859375, 0.091845703125, 0.033837890625
0.049951171875, 0.062841796875, 0.072509765625, 0.02900390625
0.02255859375, 0.024169921875, 0.027392578125, 0.014501953125
0.0, 0.0, 0.0, 0.008056640625
0.0, 0.0, 0.0, 0.0
0.0120849609375, 0.0, 0.0, 0.0
0.0, 0.0, 0.0, 0.0
0.020947265625, 0.004833984375, 0.0, 0.0
0.024169921875, 0.024169921875, 0.02578125, 0.0
0.030615234375, 0.02900390625, 0.02578125, 0.0314208984375
0.02900390625, 0.030615234375, 0.033837890625, 0.024169921875
0.03544921875, 0.0378662109375, 0.040283203125, 0.0314208984375
0.04833984375, 0.049951171875, 0.053173828125, 0.0346435546875
0.05478515625, 0.06123046875, 0.0708984375, 0.038671875
0.069287109375, 0.0765380859375, 0.0926513671875, 0.0451171875
0.09990234375, 0.115209960937, 0.111181640625, 0.040283203125
0.075732421875, 0.095068359375, 0.111181640625, 0.037060546875
0.069287109375, 0.0829833984375, 0.098291015625, 0.033837890625
0.049951171875, 0.0572021484375, 0.066064453125, 0.02578125
0.024169921875, 0.030615234375, 0.033837890625, 0.014501953125
0.00322265625, 0.00322265625, 0.0, 0.00966796875
0.0, 0.0, 0.0, 0.0120849609375
0.0, 0.0, 0.0, 0.014501953125
0.0, 0.0, 0.0, 0.0
0.024169921875, 0.0120849609375, 0.004833984375, 0.0120849609375
0.02255859375, 0.02255859375, 0.020947265625, 0.0
0.027392578125, 0.0249755859375, 0.02578125, 0.0314208984375
0.030615234375, 0.0314208984375, 0.033837890625, 0.02578125
0.03544921875, 0.037060546875, 0.040283203125, 0.033837890625
0.05478515625, 0.062841796875, 0.0708984375, 0.037060546875
0.06123046875, 0.0700927734375, 0.085400390625, 0.0475341796875
0.088623046875, 0.10634765625, 0.104736328125, 0.0539794921875
0.090234375, 0.108764648438, 0.098291015625, 0.043505859375
0.06767578125, 0.082177734375, 0.098291015625, 0.0346435546875
0.06123046875, 0.07412109375, 0.0862060546875, 0.02900390625
0.02900390625, 0.037060546875, 0.0410888671875, 0.014501953125
0.0, 0.0, 0.0, 0.008056640625
0.0, 0.0, 0.0, 0.0
0.011279296875, 0.0, 0.0, 0.0
0.0, 0.0, 0.0, 0.0
0.017724609375, 0.0, 0.0, 0.0
0.01611328125, 0.011279296875, 0.014501953125, 0.0
0.027392578125, 0.0249755859375, 0.020947265625, 0.0265869140625
0.030615234375, 0.030615234375, 0.0322265625, 0.0217529296875
0.03544921875, 0.037060546875, 0.040283203125, 0.027392578125
0.037060546875, 0.043505859375, 0.046728515625, 0.0322265625
0.0580078125, 0.0636474609375, 0.07734375, 0.0346435546875
0.069287109375, 0.0765380859375, 0.0926513671875, 0.0507568359375
0.0966796875, 0.115209960937, 0.116015625, 0.0507568359375
0.075732421875, 0.101513671875, 0.111181640625, 0.040283203125
0.062841796875, 0.075732421875, 0.091845703125, 0.0378662109375
0.049951171875, 0.06123046875, 0.0733154296875, 0.02900390625
0.03544921875, 0.0378662109375, 0.046728515625, 0.02255859375
0.0064453125, 0.004833984375, 0.0024169921875, 0.0120849609375
0.0, 0.0, 0.0, 0.008056640625
0.0, 0.0, 0.0, 0.012890625
0.0, 0.0, 0.0, 0.0
0.020947265625, 0.00322265625, 0.0, 0.0
0.0193359375, 0.017724609375, 0.020947265625, 0.0
0.027392578125, 0.0249755859375, 0.020947265625, 0.0281982421875
0.0322265625, 0.0314208984375, 0.033837890625, 0.0217529296875
0.0322265625, 0.03544921875, 0.038671875, 0.027392578125
0.04189453125, 0.046728515625, 0.053173828125, 0.0346435546875
0.05478515625, 0.062841796875, 0.0708984375, 0.037060546875
0.06767578125, 0.0765380859375, 0.090234375, 0.0507568359375
0.09345703125, 0.107958984375, 0.104736328125, 0.0507568359375
0.075732421875, 0.095068359375, 0.104736328125, 0.038671875
0.06767578125, 0.082177734375, 0.0990966796875, 0.0378662109375
0.04833984375, 0.0572021484375, 0.066064453125, 0.0281982421875
0.024169921875, 0.0314208984375, 0.033837890625, 0.0185302734375
0.0, 0.0, 0.0, 0.0120849609375
0.0, 0.0, 0.0, 0.0088623046875
0.0, 0.0, 0.0, 0.0
0.014501953125, 0.0, 0.0, 0.0
0.011279296875, 0.0056396484375, 0.0064453125, 0.0
0.027392578125, 0.024169921875, 0.0153076171875, 0.020947265625
0.024169921875, 0.0249755859375, 0.027392578125, 0.02578125
0.024169921875, 0.030615234375, 0.033837890625, 0.0314208984375
0.03544921875, 0.037060546875, 0.040283203125, 0.0281982421875
0.04833984375, 0.049951171875, 0.0580078125, 0.033837890625
0.056396484375, 0.0636474609375, 0.078955078125, 0.038671875
0.075732421875, 0.088623046875, 0.104736328125, 0.0539794921875
0.103125, 0.103125, 0.098291015625, 0.0451171875
0.07412109375, 0.0894287109375, 0.105541992187, 0.037060546875
0.062841796875, 0.075732421875, 0.091845703125, 0.033837890625
0.037060546875, 0.04833984375, 0.053173828125, 0.024169921875
0.01611328125, 0.017724609375, 0.020947265625, 0.012890625
0.0, 0.0, 0.0, 0.0120849609375
0.0, 0.0, 0.0, 0.014501953125
0.0, 0.0, 0.0, 0.0
0.017724609375, 0.0, 0.0, 0.0
0.01611328125, 0.0120849609375, 0.014501953125, 0.0
0.027392578125, 0.024169921875, 0.0185302734375, 0.024169921875
0.02900390625, 0.030615234375, 0.033837890625, 0.02578125
0.024169921875, 0.030615234375, 0.0346435546875, 0.02578125
0.037060546875, 0.043505859375, 0.046728515625, 0.0322265625
0.06123046875, 0.06767578125, 0.07734375, 0.033837890625
0.07412109375, 0.0829833984375, 0.098291015625, 0.0507568359375
0.09345703125, 0.114404296875, 0.111987304688, 0.0451171875
0.075732421875, 0.0958740234375, 0.104736328125, 0.0410888671875
0.06767578125, 0.0765380859375, 0.091845703125, 0.0378662109375
0.06123046875, 0.069287109375, 0.078955078125, 0.0281982421875
0.03544921875, 0.0378662109375, 0.046728515625, 0.020947265625
0.0, 0.0, 0.0, 0.0088623046875
0.0, 0.0, 0.0, 0.0
0.017724609375, 0.0, 0.0, 0.0
0.0, 0.0, 0.0, 0.0
0.020947265625, 0.00322265625, 0.0, 0.0024169921875
0.024169921875, 0.024169921875, 0.02578125, 0.0
0.027392578125, 0.0249755859375, 0.02578125, 0.0314208984375
0.024169921875, 0.030615234375, 0.033837890625, 0.02900390625
0.030615234375, 0.0314208984375, 0.0346435546875, 0.027392578125
0.04189453125, 0.043505859375, 0.046728515625, 0.03544921875
0.049951171875, 0.0572021484375, 0.0668701171875, 0.0346435546875
0.062841796875, 0.07412109375, 0.085400390625, 0.0475341796875
0.09345703125, 0.107958984375, 0.104736328125, 0.046728515625
0.07412109375, 0.088623046875, 0.103125, 0.038671875
0.06767578125, 0.0765380859375, 0.091845703125, 0.03544921875
0.04833984375, 0.056396484375, 0.064453125, 0.027392578125
0.02900390625, 0.0314208984375, 0.033837890625, 0.0201416015625
0.004833984375, 0.00322265625, 0.0, 0.011279296875
0.0, 0.0, 0.0, 0.011279296875
0.0, 0.0, 0.0, 0.0
0.017724609375, 0.00322265625, 0.0, 0.0
0.01611328125, 0.011279296875, 0.012890625, 0.0
0.027392578125, 0.02255859375, 0.0185302734375, 0.0249755859375
0.02900390625, 0.0249755859375, 0.0281982421875, 0.027392578125
0.03544921875, 0.037060546875, 0.038671875, 0.0281982421875
0.03544921875, 0.037060546875, 0.040283203125, 0.0322265625
0.049951171875, 0.05478515625, 0.059619140625, 0.037060546875
0.056396484375, 0.0636474609375, 0.072509765625, 0.040283203125
0.088623046875, 0.104736328125, 0.098291015625, 0.046728515625
0.08701171875, 0.10634765625, 0.091845703125, 0.033837890625
0.06767578125, 0.082177734375, 0.0966796875, 0.0410888671875
0.05478515625, 0.0636474609375, 0.07734375, 0.0322265625
0.043505859375, 0.049951171875, 0.0580078125, 0.02900390625
0.01611328125, 0.017724609375, 0.020947265625, 0.0185302734375
0.0, 0.0, 0.0, 0.0153076171875
0.0, 0.0, 0.0, 0.0
0.017724609375, 0.0, 0.0, 0.0
0.0, 0.0, 0.0, 0.02255859375
0.0193359375, 0.017724609375, 0.020947265625, 0.02578125
0.024169921875, 0.0249755859375, 0.0322265625, 0.02578125
0.024169921875, 0.0249755859375, 0.033837890625, 0.02900390625
0.03544921875, 0.037060546875, 0.040283203125, 0.027392578125
0.0451171875, 0.049951171875, 0.0580078125, 0.0346435546875
0.0580078125, 0.062841796875, 0.072509765625, 0.0346435546875
0.069287109375, 0.0765380859375, 0.091845703125, 0.0451171875
0.09345703125, 0.107958984375, 0.104736328125, 0.04189453125
0.07412109375, 0.0894287109375, 0.0990966796875, 0.0346435546875
0.062841796875, 0.0765380859375, 0.091845703125, 0.0378662109375
0.05478515625, 0.0636474609375, 0.072509765625, 0.027392578125
0.02255859375, 0.0249755859375, 0.0281982421875, 0.017724609375
0.00322265625, 0.0, 0.0, 0.017724609375
0.0, 0.0, 0.0, 0.0
0.017724609375, 0.0, 0.0, 0.0
0.0, 0.0, 0.0, 0.0
0.020947265625, 0.008056640625, 0.001611328125, 0.004833984375
0.02255859375, 0.02255859375, 0.02578125, 0.0
0.030615234375, 0.030615234375, 0.027392578125, 0.03544921875
0.024169921875, 0.030615234375, 0.033837890625, 0.0281982421875
0.03544921875, 0.037060546875, 0.038671875, 0.02578125
0.049951171875, 0.056396484375, 0.064453125, 0.0322265625
0.0580078125, 0.0636474609375, 0.07734375, 0.04189453125
0.075732421875, 0.0894287109375, 0.104736328125, 0.0507568359375
0.09345703125, 0.108764648438, 0.0990966796875, 0.0410888671875
0.07412109375, 0.0894287109375, 0.103125, 0.0346435546875
0.062841796875, 0.075732421875, 0.085400390625, 0.0322265625
0.04833984375, 0.056396484375, 0.066064453125, 0.0281982421875
0.02900390625, 0.0314208984375, 0.0346435546875, 0.01611328125
0.0, 0.0, 0.0, 0.00966796875
0.0, 0.0, 0.0, 0.0
0.020947265625, 0.0, 0.0, 0.0
0.0, 0.0, 0.0, 0.0
0.024169921875, 0.0120849609375, 0.008056640625, 0.0120849609375
0.024169921875, 0.0249755859375, 0.027392578125, 0.027392578125
0.030615234375, 0.0314208984375, 0.033837890625, 0.027392578125
0.0322265625, 0.0314208984375, 0.038671875, 0.027392578125
0.037060546875, 0.043505859375, 0.0475341796875, 0.0322265625
0.049951171875, 0.056396484375, 0.066064453125, 0.033837890625
0.06123046875, 0.069287109375, 0.0837890625, 0.040283203125
0.08701171875, 0.09990234375, 0.116015625, 0.0507568359375
0.08701171875, 0.104736328125, 0.091845703125, 0.0410888671875
0.062841796875, 0.0765380859375, 0.091845703125, 0.0378662109375
0.049951171875, 0.062841796875, 0.072509765625, 0.027392578125
0.0322265625, 0.037060546875, 0.0410888671875, 0.0217529296875
0.00966796875, 0.011279296875, 0.008056640625, 0.0153076171875
0.0, 0.0, 0.0, 0.012890625
0.0, 0.0, 0.0, 0.01611328125
0.0, 0.0, 0.0, 0.0
0.024169921875, 0.011279296875, 0.004833984375, 0.00966796875
0.024169921875, 0.024169921875, 0.027392578125, 0.0
0.030615234375, 0.0314208984375, 0.030615234375, 0.037060546875
0.0322265625, 0.03544921875, 0.038671875, 0.02578125
0.037060546875, 0.037060546875, 0.040283203125, 0.027392578125
0.049951171875, 0.056396484375, 0.064453125, 0.033837890625
0.06123046875, 0.069287109375, 0.078955078125, 0.040283203125
0.08701171875, 0.0958740234375, 0.111181640625, 0.0507568359375
0.08701171875, 0.104736328125, 0.0926513671875, 0.037060546875
0.069287109375, 0.0829833984375, 0.098291015625, 0.037060546875
0.06123046875, 0.0700927734375, 0.0837890625, 0.0346435546875
0.0451171875, 0.056396484375, 0.064453125, 0.030615234375
0.00966796875, 0.011279296875, 0.012890625, 0.0185302734375
0.0, 0.0, 0.0, 0.014501953125
0.0, 0.0, 0.0, 0.0
0.017724609375, 0.0, 0.0, 0.0
0.00966796875, 0.004833984375, 0.001611328125, 0.0
0.030615234375, 0.02255859375, 0.0153076171875, 0.02255859375
0.02900390625, 0.030615234375, 0.0322265625, 0.0298095703125
0.02900390625, 0.030615234375, 0.033837890625, 0.02578125
0.03544921875, 0.037060546875, 0.040283203125, 0.027392578125
0.037060546875, 0.043505859375, 0.0475341796875, 0.0281982421875
0.05478515625, 0.0572021484375, 0.064453125, 0.033837890625
0.062841796875, 0.0700927734375, 0.085400390625, 0.0410888671875
0.088623046875, 0.104736328125, 0.098291015625, 0.0459228515625
0.0708984375, 0.08701171875, 0.0990966796875, 0.03544921875
0.062841796875, 0.0765380859375, 0.091845703125, 0.0378662109375
0.0451171875, 0.056396484375, 0.066064453125, 0.02900390625
0.024169921875, 0.030615234375, 0.033837890625, 0.014501953125
0.0, 0.00322265625, 0.001611328125, 0.01611328125
0.0, 0.0, 0.0, 0.012890625
0.0, 0.0, 0.0, 0.0
0.020947265625, 0.001611328125, 0.0, 0.0
0.01611328125, 0.0120849609375, 0.014501953125, 0.0
0.027392578125, 0.024169921875, 0.020947265625, 0.0281982421875
0.024169921875, 0.030615234375, 0.033837890625, 0.0281982421875
0.0322265625, 0.0314208984375, 0.033837890625, 0.02900390625
0.0322265625, 0.03544921875, 0.038671875, 0.0314208984375
0.04833984375, 0.0515625, 0.0539794921875, 0.0322265625
0.05478515625, 0.062841796875, 0.072509765625, 0.037060546875
0.088623046875, 0.103125, 0.0926513671875, 0.0451171875
0.075732421875, 0.0958740234375, 0.105541992187, 0.0378662109375
0.0708984375, 0.082177734375, 0.0966796875, 0.04189453125
0.05478515625, 0.062841796875, 0.07734375, 0.033837890625
0.04189453125, 0.049951171875, 0.059619140625, 0.0281982421875
0.01611328125, 0.0185302734375, 0.020947265625, 0.01611328125
0.0, 0.0, 0.0, 0.0136962890625
0.0, 0.0, 0.0, 0.014501953125
0.0, 0.0, 0.0, 0.0
0.020947265625, 0.001611328125, 0.0, 0.001611328125
0.024169921875, 0.02255859375, 0.020947265625, 0.0
0.027392578125, 0.0249755859375, 0.02578125, 0.0314208984375
0.02900390625, 0.030615234375, 0.033837890625, 0.02578125
0.030615234375, 0.03544921875, 0.040283203125, 0.02578125
0.04833984375, 0.053173828125, 0.059619140625, 0.033837890625
0.0580078125, 0.0636474609375, 0.072509765625, 0.033837890625
0.069287109375, 0.0765380859375, 0.091845703125, 0.0451171875
0.09345703125, 0.108764648438, 0.104736328125, 0.04189453125
0.07412109375, 0.088623046875, 0.098291015625, 0.038671875
0.07412109375, 0.088623046875, 0.104736328125, 0.0410888671875
0.06123046875, 0.0700927734375, 0.078955078125, 0.0322265625
0.037060546875, 0.0443115234375, 0.053173828125, 0.020947265625
0.0, 0.0, 0.0, 0.008056640625
0.0, 0.0, 0.0, 0.0
0.0120849609375, 0.0, 0.0, 0.0
0.0, 0.0, 0.0, 0.0
0.0193359375, 0.0, 0.0, 0.0
0.01611328125, 0.0120849609375, 0.012890625, 0.0
0.027392578125, 0.02255859375, 0.0153076171875, 0.020947265625
0.024169921875, 0.024169921875, 0.027392578125, 0.0281982421875
0.0322265625, 0.030615234375, 0.033837890625, 0.02578125
0.043505859375, 0.046728515625, 0.053173828125, 0.037060546875
0.06123046875, 0.0700927734375, 0.078955078125, 0.0410888671875
0.075732421875, 0.088623046875, 0.103125, 0.0507568359375
0.103125, 0.101513671875, 0.118432617188, 0.046728515625
0.082177734375, 0.101513671875, 0.117626953125, 0.0459228515625
0.07412109375, 0.0894287109375, 0.105541992187, 0.03544921875
0.049951171875, 0.06123046875, 0.072509765625, 0.027392578125
0.00966796875, 0.011279296875, 0.012890625, 0.0193359375
0.0, 0.0, 0.0, 0.008056640625
0.0, 0.0, 0.0, 0.0
0.017724609375, 0.0, 0.0, 0.0
0.0, 0.0, 0.0, 0.0
0.024169921875, 0.011279296875, 0.0024169921875, 0.0088623046875
0.01611328125, 0.017724609375, 0.0193359375, 0.0
0.027392578125, 0.0249755859375, 0.0217529296875, 0.0298095703125
0.024169921875, 0.0249755859375, 0.027392578125, 0.024169921875
0.03544921875, 0.037060546875, 0.038671875, 0.0330322265625
0.0580078125, 0.0636474609375, 0.072509765625, 0.033837890625
0.07412109375, 0.082177734375, 0.091845703125, 0.0451171875
0.103125, 0.0958740234375, 0.118432617188, 0.0539794921875
0.09990234375, 0.11279296875, 0.104736328125, 0.0459228515625
0.075732421875, 0.0894287109375, 0.105541992187, 0.0410888671875
0.062841796875, 0.075732421875, 0.091845703125, 0.0322265625
0.03544921875, 0.0378662109375, 0.0451171875, 0.0193359375
0.0, 0.001611328125, 0.001611328125, 0.0120849609375
0.0, 0.0, 0.0, 0.0088623046875
0.0, 0.0, 0.0, 0.0
0.017724609375, 0.0, 0.0, 0.0
0.00322265625, 0.001611328125, 0.001611328125, 0.0
0.024169921875, 0.0120849609375, 0.008056640625, 0.0120849609375
0.017724609375, 0.017724609375, 0.0193359375, 0.0265869140625
0.024169921875, 0.0249755859375, 0.027392578125, 0.02900390625
0.02900390625, 0.030615234375, 0.033837890625, 0.0322265625
0.049951171875, 0.056396484375, 0.0604248046875, 0.03544921875
0.06123046875, 0.069287109375, 0.078955078125, 0.038671875
0.082177734375, 0.095068359375, 0.107958984375, 0.0539794921875
0.10634765625, 0.10634765625, 0.103125, 0.0475341796875
0.082177734375, 0.0958740234375, 0.111987304688, 0.040283203125
0.0708984375, 0.08701171875, 0.103125, 0.033837890625
0.043505859375, 0.056396484375, 0.066064453125, 0.027392578125
0.017724609375, 0.024169921875, 0.027392578125, 0.0153076171875
0.0, 0.0, 0.0, 0.0120849609375
0.0, 0.0, 0.0, 0.0
0.0120849609375, 0.0, 0.0, 0.0
0.0, 0.0, 0.0, 0.02255859375
0.00966796875, 0.0056396484375, 0.0064453125, 0.0217529296875
0.017724609375, 0.0120849609375, 0.014501953125, 0.0
0.027392578125, 0.024169921875, 0.020947265625, 0.027392578125
0.024169921875, 0.0249755859375, 0.0322265625, 0.0314208984375
0.037060546875, 0.043505859375, 0.046728515625, 0.0322265625
0.049951171875, 0.056396484375, 0.066064453125, 0.0378662109375
0.06767578125, 0.075732421875, 0.085400390625, 0.038671875
0.10634765625, 0.103125, 0.104736328125, 0.04833984375
0.09345703125, 0.10634765625, 0.098291015625, 0.040283203125
0.075732421875, 0.0958740234375, 0.111181640625, 0.0410888671875
0.062841796875, 0.075732421875, 0.090234375, 0.0281982421875
0.037060546875, 0.0443115234375, 0.053173828125, 0.020947265625
0.0, 0.0, 0.0, 0.0120849609375
0.0, 0.0, 0.0, 0.0
0.0120849609375, 0.0, 0.0, 0.0
0.0, 0.0, 0.0, 0.0
0.011279296875, 0.0, 0.0, 0.0
0.00966796875, 0.0056396484375, 0.008056640625, 0.0
0.024169921875, 0.01611328125, 0.011279296875, 0.0185302734375
0.024169921875, 0.024169921875, 0.024169921875, 0.024169921875
0.024169921875, 0.0249755859375, 0.0281982421875, 0.0298095703125
0.04189453125, 0.049951171875, 0.0539794921875, 0.033837890625
0.0580078125, 0.062841796875, 0.072509765625, 0.037060546875
0.0708984375, 0.0765380859375, 0.091845703125, 0.0451171875
0.09990234375, 0.115209960937, 0.111987304688, 0.049951171875
0.088623046875, 0.10634765625, 0.091845703125, 0.04189453125
0.075732421875, 0.0894287109375, 0.104736328125, 0.0410888671875
0.05478515625, 0.062841796875, 0.07734375, 0.0314208984375
0.030615234375, 0.037060546875, 0.0451171875, 0.0193359375
0.0, 0.001611328125, 0.001611328125, 0.011279296875
0.0, 0.0, 0.0, 0.0
0.017724609375, 0.0, 0.0, 0.0
0.0, 0.0, 0.0, 0.011279296875
0.00322265625, 0.0, 0.0, 0.02255859375
0.01611328125, 0.011279296875, 0.008056640625, 0.0
0.027392578125, 0.024169921875, 0.0185302734375, 0.024169921875
0.024169921875, 0.024169921875, 0.027392578125, 0.02900390625
0.0322265625, 0.0314208984375, 0.033837890625, 0.027392578125
0.049951171875, 0.05478515625, 0.0580078125, 0.038671875
0.062841796875, 0.0700927734375, 0.0797607421875, 0.04189453125
0.0837890625, 0.095068359375, 0.111181640625, 0.0539794921875
0.10634765625, 0.107958984375, 0.105541992187, 0.0410888671875
0.0837890625, 0.101513671875, 0.111181640625, 0.040283203125
0.06767578125, 0.0765380859375, 0.091845703125, 0.033837890625
0.04833984375, 0.056396484375, 0.066064453125, 0.027392578125
0.00322265625, 0.004833984375, 0.0064453125, 0.0136962890625
0.0, 0.0, 0.0, 0.0
0.011279296875, 0.0, 0.0, 0.0
0.0, 0.0, 0.0, 0.0
0.017724609375, 0.0, 0.0, 0.0
0.00966796875, 0.004833984375, 0.008056640625, 0.0
0.024169921875, 0.011279296875, 0.004833984375, 0.011279296875
0.024169921875, 0.024169921875, 0.02578125, 0.030615234375
0.024169921875, 0.0249755859375, 0.027392578125, 0.0281982421875
0.037060546875, 0.0378662109375, 0.0410888671875, 0.0322265625
0.05478515625, 0.06123046875, 0.0708984375, 0.0346435546875
0.06767578125, 0.075732421875, 0.090234375, 0.0443115234375
0.09990234375, 0.114404296875, 0.111181640625, 0.05478515625
0.11279296875, 0.107958984375, 0.101513671875, 0.0410888671875
0.0837890625, 0.101513671875, 0.117626953125, 0.0443115234375
0.0580078125, 0.069287109375, 0.0837890625, 0.0322265625
0.037060546875, 0.0443115234375, 0.053173828125, 0.0265869140625
0.00322265625, 0.004833984375, 0.0064453125, 0.0120849609375
0.0, 0.0, 0.0, 0.011279296875
0.0, 0.0, 0.0, 0.012890625
0.0, 0.0, 0.0, 0.0
0.020947265625, 0.0, 0.0, 0.0
0.00966796875, 0.0056396484375, 0.008056640625, 0.0
0.024169921875, 0.017724609375, 0.0120849609375, 0.017724609375
0.02255859375, 0.024169921875, 0.02578125, 0.024169921875
0.02900390625, 0.0249755859375, 0.027392578125, 0.027392578125
0.0451171875, 0.04833984375, 0.0515625, 0.033837890625
0.06123046875, 0.069287109375, 0.078955078125, 0.038671875
0.07412109375, 0.0829833984375, 0.098291015625, 0.046728515625
0.107958984375, 0.104736328125, 0.098291015625, 0.05478515625
0.095068359375, 0.11279296875, 0.098291015625, 0.0443115234375
0.13857421875, 0.22880859375, 0.162744140625, 0.03544921875
0.0451171875, 0.062841796875, 0.072509765625, 0.027392578125
0.0, 0.0, 0.0, 0.0120849609375
0.0, 0.0, 0.0, 0.0
0.017724609375, 0.0, 0.0, 0.0
0.011279296875, 0.0056396484375, 0.008056640625, 0.0
0.024169921875, 0.0185302734375, 0.014501953125, 0.020947265625
0.02900390625, 0.030615234375, 0.033837890625, 0.02900390625
0.037060546875, 0.0378662109375, 0.046728515625, 0.027392578125
0.04189453125, 0.0443115234375, 0.049951171875, 0.0314208984375
0.05478515625, 0.06123046875, 0.059619140625, 0.0322265625
0.069287109375, 0.08701171875, 0.091845703125, 0.033837890625
0.088623046875, 0.11279296875, 0.091845703125, 0.0346435546875
0.06767578125, 0.08701171875, 0.0990966796875, 0.0410888671875
0.062841796875, 0.07412109375, 0.090234375, 0.0346435546875
0.030615234375, 0.0314208984375, 0.040283203125, 0.0281982421875
0.024169921875, 0.0249755859375, 0.038671875, 0.027392578125
0.024169921875, 0.024169921875, 0.027392578125, 0.027392578125
0.00966796875, 0.00966796875, 0.014501953125, 0.0193359375
0.0, 0.0, 0.0, 0.0153076171875
0.0064453125, 0.00322265625, 0.001611328125, 0.0193359375
0.0193359375, 0.017724609375, 0.014501953125, 0.0
0.024169921875, 0.02255859375, 0.0153076171875, 0.02255859375
0.024169921875, 0.0249755859375, 0.0281982421875, 0.027392578125
0.043505859375, 0.0443115234375, 0.0475341796875, 0.027392578125
0.04189453125, 0.0443115234375, 0.0507568359375, 0.027392578125
0.04189453125, 0.049951171875, 0.0539794921875, 0.027392578125
0.049951171875, 0.056396484375, 0.064453125, 0.0322265625
0.05478515625, 0.062841796875, 0.0708984375, 0.033837890625
0.06123046875, 0.0700927734375, 0.078955078125, 0.038671875
0.075732421875, 0.0894287109375, 0.103125, 0.0378662109375
0.049951171875, 0.062841796875, 0.072509765625, 0.027392578125
0.037060546875, 0.0443115234375, 0.0539794921875, 0.033837890625
0.552685546875, 0.333544921875, 0.219140625, 0.0717041015625
0.488232421875, 0.398803710938, 0.317431640625, 0.062841796875
0.172412109375, 0.204638671875, 0.207861328125, 0.038671875
0.0, 0.0, 0.0, 0.0088623046875
0.0, 0.0, 0.0, 0.0193359375
0.0, 0.0, 0.0, 0.024169921875
0.043505859375, 0.043505859375, 0.046728515625, 0.0
0.033837890625, 0.13857421875, 0.098291015625, 0.09990234375
0.262646484375, 0.198193359375, 0.167578125, 0.049951171875
0.48017578125, 0.373022460937, 0.285205078125, 0.064453125
0.765380859375, 0.559130859375, 0.414111328125, 0.0845947265625
1.03608398437, 0.70576171875, 0.523681640625, 0.09345703125
1.4953125, 1.09086914063, 0.720263671875, 0.105541992187
1.42119140625, 1.15854492187, 0.79921875, 0.107958984375
1.06669921875, 0.87333984375, 0.626806640625, 0.088623046875
0.57685546875, 0.517236328125, 0.402026367188, 0.066064453125
0.03544921875, 0.088623046875, 0.124877929688, 0.020947265625
0.024169921875, 0.017724609375, 0.0193359375, 0.02900390625
0.04189453125, 0.037060546875, 0.038671875, 0.02900390625
0.095068359375, 0.095068359375, 0.098291015625, 0.03544921875
0.281982421875, 0.223974609375, 0.163549804687, 0.0539794921875
0.48017578125, 0.365771484375, 0.272314453125, 0.062841796875
0.68642578125, 0.515625, 0.369799804688, 0.0781494140625
0.9861328125, 0.695288085937, 0.517236328125, 0.085400390625
1.4244140625, 1.01674804687, 0.684814453125, 0.1095703125
1.53559570312, 1.23588867188, 0.858837890625, 0.104736328125
1.26650390625, 1.05622558594, 0.762963867188, 0.098291015625
0.87333984375, 0.746044921875, 0.556713867187, 0.0781494140625
0.25458984375, 0.275537109375, 0.256201171875, 0.040283203125
0.02900390625, 0.0378662109375, 0.0580078125, 0.0217529296875
0.07412109375, 0.069287109375, 0.0708984375, 0.027392578125
0.127294921875, 0.108764648438, 0.091845703125, 0.037060546875
0.26103515625, 0.198999023438, 0.167578125, 0.053173828125
0.41572265625, 0.315014648437, 0.234448242187, 0.0539794921875
0.668701171875, 0.501123046875, 0.381884765625, 0.0708984375
0.897509765625, 0.636474609375, 0.465673828125, 0.082177734375
1.16337890625, 0.823388671875, 0.595385742188, 0.0966796875
1.60810546875, 1.22299804687, 0.820971679688, 0.111987304688
1.39702148438, 1.18513183594, 0.853198242188, 0.104736328125
1.11181640625, 0.95068359375, 0.691259765625, 0.0837890625
0.31904296875, 0.315014648437, 0.28359375, 0.046728515625
0.024169921875, 0.046728515625, 0.0708984375, 0.0249755859375
0.049951171875, 0.053173828125, 0.0539794921875, 0.0314208984375
0.13212890625, 0.107958984375, 0.090234375, 0.038671875
0.26748046875, 0.191748046875, 0.156298828125, 0.046728515625
0.359326171875, 0.288427734375, 0.227197265625, 0.0588134765625
0.60263671875, 0.469702148437, 0.3544921875, 0.069287109375
0.8443359375, 0.591357421875, 0.451171875, 0.082177734375
1.11342773437, 0.791162109375, 0.575244140625, 0.0966796875
1.5662109375, 1.15854492187, 0.760546875, 0.1095703125
1.43569335937, 1.20366210938, 0.859643554688, 0.104736328125
1.147265625, 0.958740234375, 0.700927734375, 0.085400390625
0.62197265625, 0.534155273437, 0.420556640625, 0.0636474609375
0.06123046875, 0.114404296875, 0.118432617188, 0.020947265625
0.030615234375, 0.0249755859375, 0.027392578125, 0.027392578125
0.0966796875, 0.088623046875, 0.085400390625, 0.037060546875
0.15791015625, 0.133740234375, 0.111181640625, 0.040283203125
0.33837890625, 0.25458984375, 0.194970703125, 0.0572021484375
0.520458984375, 0.397998046875, 0.3158203125, 0.0717041015625
0.79599609375, 0.579272460938, 0.43828125, 0.08056640625
1.03447265625, 0.721875, 0.517236328125, 0.091845703125
1.5146484375, 1.11423339844, 0.7412109375, 0.1095703125
1.48564453125, 1.21010742187, 0.855615234375, 0.110375976563
1.18432617188, 0.984521484375, 0.7154296875, 0.09345703125
0.68642578125, 0.592163085938, 0.4705078125, 0.0636474609375
0.09345703125, 0.140991210938, 0.1482421875, 0.0314208984375
0.004833984375, 0.008056640625, 0.014501953125, 0.020947265625
0.056396484375, 0.053173828125, 0.0507568359375, 0.0
0.037060546875, 0.0636474609375, 0.066064453125, 0.075732421875
0.217529296875, 0.149853515625, 0.117626953125, 0.04833984375
0.37060546875, 0.295678710938, 0.23203125, 0.06123046875
0.61875, 0.456005859375, 0.336767578125, 0.0749267578125
0.91845703125, 0.650170898438, 0.478564453125, 0.085400390625
1.1150390625, 0.78310546875, 0.565576171875, 0.09990234375
1.53720703125, 1.15854492187, 0.758935546875, 0.1095703125
1.35029296875, 1.12067871094, 0.812109375, 0.105541992187
1.06831054687, 0.887841796875, 0.649365234375, 0.0837890625
0.26748046875, 0.288427734375, 0.272314453125, 0.0459228515625
0.0, 0.011279296875, 0.0281982421875, 0.0153076171875
0.004833984375, 0.004833984375, 0.0088623046875, 0.020947265625
0.024169921875, 0.0185302734375, 0.020947265625, 0.02900390625
0.09345703125, 0.088623046875, 0.090234375, 0.033837890625
0.281982421875, 0.218334960937, 0.156298828125, 0.0515625
0.4447265625, 0.334350585938, 0.2513671875, 0.0636474609375
0.69287109375, 0.520458984375, 0.375439453125, 0.072509765625
0.952294921875, 0.671923828125, 0.497900390625, 0.085400390625
1.2826171875, 0.878173828125, 0.605859375, 0.103125
1.5275390625, 1.18513183594, 0.794384765625, 0.10634765625
1.20366210938, 1.00466308594, 0.730737304688, 0.09990234375
0.78955078125, 0.682397460938, 0.518041992187, 0.0708984375
0.14501953125, 0.191748046875, 0.202221679687, 0.0322265625
0.0, 0.00966796875, 0.038671875, 0.0185302734375
0.0, 0.0, 0.001611328125, 0.020947265625
0.05478515625, 0.0378662109375, 0.033837890625, 0.0
0.033837890625, 0.069287109375, 0.0636474609375, 0.0700927734375
0.22236328125, 0.159521484375, 0.130517578125, 0.04833984375
0.372216796875, 0.294873046875, 0.227197265625, 0.05478515625
0.642919921875, 0.476147460937, 0.356103515625, 0.0781494140625
0.928125, 0.643725585938, 0.476953125, 0.0837890625
1.20205078125, 0.836279296875, 0.575244140625, 0.09990234375
1.51625976562, 1.15854492187, 0.762963867188, 0.105541992187
1.2955078125, 1.08764648438, 0.778271484375, 0.098291015625
1.03125, 0.842724609375, 0.601025390625, 0.08701171875
0.198193359375, 0.249755859375, 0.2384765625, 0.0427001953125
0.0, 0.0, 0.014501953125, 0.01611328125
0.004833984375, 0.00322265625, 0.0064453125, 0.0217529296875
0.024169921875, 0.020947265625, 0.0217529296875, 0.027392578125
0.10634765625, 0.0765380859375, 0.078955078125, 0.033837890625
0.281982421875, 0.218334960937, 0.156298828125, 0.05478515625
0.37060546875, 0.307763671875, 0.247338867188, 0.059619140625
0.729931640625, 0.533349609375, 0.389135742187, 0.07734375
0.910400390625, 0.649365234375, 0.478564453125, 0.08701171875
1.33095703125, 0.92490234375, 0.6380859375, 0.104736328125
1.50659179688, 1.17868652344, 0.787939453125, 0.111987304688
1.24877929688, 1.03366699219, 0.736376953125, 0.0966796875
0.858837890625, 0.733154296875, 0.543017578125, 0.07734375
0.249755859375, 0.269897460938, 0.259423828125, 0.04833984375
0.0, 0.004833984375, 0.02578125, 0.014501953125
0.0, 0.0, 0.001611328125, 0.0265869140625
0.00322265625, 0.004833984375, 0.008056640625, 0.02578125
0.06123046875, 0.056396484375, 0.059619140625, 0.0
0.037060546875, 0.153076171875, 0.114404296875, 0.0894287109375
0.3416015625, 0.250561523437, 0.188525390625, 0.0580078125
0.526904296875, 0.397998046875, 0.309375, 0.0668701171875
0.8701171875, 0.620361328125, 0.452783203125, 0.085400390625
1.05380859375, 0.727514648437, 0.520458984375, 0.0958740234375
1.50014648437, 1.11423339844, 0.742822265625, 0.105541992187
1.40185546875, 1.16499023437, 0.8185546875, 0.104736328125
1.09248046875, 0.901538085938, 0.653393554687, 0.085400390625
0.30615234375, 0.320654296875, 0.28359375, 0.04833984375
0.0, 0.0, 0.020947265625, 0.012890625
0.0, 0.0, 0.001611328125, 0.0193359375
0.0, 0.0, 0.001611328125, 0.0281982421875
0.02900390625, 0.0314208984375, 0.038671875, 0.0
0.037060546875, 0.166772460938, 0.117626953125, 0.0894287109375
0.24169921875, 0.186108398437, 0.1611328125, 0.0523681640625
0.46728515625, 0.37060546875, 0.28359375, 0.069287109375
0.742822265625, 0.540600585937, 0.401220703125, 0.0813720703125
0.997412109375, 0.707373046875, 0.524487304687, 0.0894287109375
1.45986328125, 1.06186523437, 0.697705078125, 0.10634765625
1.40830078125, 1.134375, 0.7798828125, 0.10634765625
1.07314453125, 0.89267578125, 0.6509765625, 0.088623046875
0.61875, 0.526904296875, 0.410888671875, 0.066064453125
0.04189453125, 0.104736328125, 0.111181640625, 0.020947265625
0.0, 0.0, 0.001611328125, 0.0217529296875
0.0, 0.0, 0.0, 0.0217529296875
0.024169921875, 0.02255859375, 0.027392578125, 0.0
0.033837890625, 0.101513671875, 0.0829833984375, 0.0829833984375
0.217529296875, 0.172412109375, 0.149853515625, 0.0451171875
0.4447265625, 0.346435546875, 0.262646484375, 0.059619140625
0.6896484375, 0.517236328125, 0.368994140625, 0.075732421875
0.94423828125, 0.66064453125, 0.48984375, 0.085400390625
1.31323242188, 0.90556640625, 0.6251953125, 0.104736328125
1.47275390625, 1.14565429687, 0.7669921875, 0.10634765625
1.1021484375, 0.932958984375, 0.665478515625, 0.088623046875
0.683203125, 0.591357421875, 0.465673828125, 0.07412109375
0.06767578125, 0.127294921875, 0.141796875, 0.02900390625
0.0, 0.0, 0.0088623046875, 0.014501953125
0.0, 0.0, 0.0, 0.0193359375
0.0, 0.0, 0.0064453125, 0.0
0.027392578125, 0.04833984375, 0.0346435546875, 0.0378662109375
0.21591796875, 0.153076171875, 0.1224609375, 0.0451171875
0.33837890625, 0.257006835938, 0.195776367187, 0.05478515625
0.501123046875, 0.392358398438, 0.298095703125, 0.066064453125
0.862060546875, 0.610693359375, 0.4705078125, 0.0845947265625
1.05541992188, 0.73154296875, 0.523681640625, 0.0958740234375
1.50498046875, 1.11987304688, 0.749267578125, 0.111987304688
1.35512695312, 1.11181640625, 0.7927734375, 0.104736328125
0.9861328125, 0.81533203125, 0.613916015625, 0.085400390625
0.30615234375, 0.309375, 0.2642578125, 0.0515625
0.0, 0.0056396484375, 0.0322265625, 0.014501953125
0.0, 0.0, 0.0, 0.0193359375
0.0, 0.0, 0.001611328125, 0.020947265625
0.017724609375, 0.017724609375, 0.02578125, 0.0
0.0322265625, 0.0765380859375, 0.066064453125, 0.0636474609375
0.20625, 0.146630859375, 0.117626953125, 0.046728515625
0.2900390625, 0.231225585938, 0.175634765625, 0.053173828125
0.494677734375, 0.385913085938, 0.298095703125, 0.07412109375
0.61875, 0.456811523438, 0.349658203125, 0.07734375
0.90556640625, 0.630029296875, 0.459228515625, 0.088623046875
1.04091796875, 0.733154296875, 0.523681640625, 0.0894287109375
0.765380859375, 0.605053710937, 0.476953125, 0.08056640625
0.314208984375, 0.301318359375, 0.285205078125, 0.05478515625
0.09990234375, 0.115209960937, 0.104736328125, 0.0281982421875
0.017724609375, 0.024169921875, 0.0281982421875, 0.020947265625
0.02255859375, 0.024169921875, 0.027392578125, 0.02578125
0.024169921875, 0.0249755859375, 0.0322265625, 0.033837890625
0.04189453125, 0.04833984375, 0.0539794921875, 0.027392578125
0.06123046875, 0.0636474609375, 0.0668701171875, 0.0322265625
0.075732421875, 0.085400390625, 0.090234375, 0.0378662109375
0.10634765625, 0.095068359375, 0.103125, 0.033837890625
0.13857421875, 0.120849609375, 0.104736328125, 0.043505859375
0.19658203125, 0.186108398437, 0.167578125, 0.049951171875
0.217529296875, 0.179663085937, 0.169189453125, 0.0451171875
0.20302734375, 0.185302734375, 0.163549804687, 0.046728515625
0.178857421875, 0.166772460938, 0.150659179688, 0.046728515625
0.127294921875, 0.114404296875, 0.104736328125, 0.0378662109375
0.0, 0.001611328125, 0.014501953125, 0.0193359375
0.0, 0.0, 0.001611328125, 0.0
0.024169921875, 0.0, 0.0, 0.00322265625
0.0, 0.0, 0.001611328125, 0.0
0.027392578125, 0.00322265625, 0.0, 0.0056396484375
0.02900390625, 0.030615234375, 0.033837890625, 0.0
0.033837890625, 0.043505859375, 0.0410888671875, 0.04833984375
0.049951171875, 0.056396484375, 0.059619140625, 0.033837890625
0.07412109375, 0.0765380859375, 0.078955078125, 0.033837890625
0.1353515625, 0.128100585938, 0.111181640625, 0.0443115234375
0.17724609375, 0.175634765625, 0.153076171875, 0.0451171875
0.26748046875, 0.25458984375, 0.201416015625, 0.0580078125
0.309375, 0.249755859375, 0.201416015625, 0.053173828125
0.37705078125, 0.314208984375, 0.233642578125, 0.066064453125
0.62197265625, 0.443920898437, 0.33515625, 0.072509765625
0.5220703125, 0.405249023437, 0.343212890625, 0.062841796875
0.230419921875, 0.22880859375, 0.188525390625, 0.0281982421875
0.0, 0.001611328125, 0.0064453125, 0.0136962890625
0.0, 0.0, 0.0, 0.01611328125
0.0, 0.0, 0.0, 0.0
0.020947265625, 0.0056396484375, 0.001611328125, 0.0056396484375
0.01611328125, 0.011279296875, 0.012890625, 0.0
0.027392578125, 0.024169921875, 0.0153076171875, 0.02255859375
0.04189453125, 0.037060546875, 0.038671875, 0.02900390625
0.049951171875, 0.053173828125, 0.059619140625, 0.038671875
0.08056640625, 0.085400390625, 0.098291015625, 0.0410888671875
0.095068359375, 0.107958984375, 0.103125, 0.0539794921875
0.140185546875, 0.13857421875, 0.136962890625, 0.05478515625
0.10634765625, 0.103125, 0.0966796875, 0.0475341796875
0.08056640625, 0.095068359375, 0.111181640625, 0.033837890625
0.03544921875, 0.0443115234375, 0.0539794921875, 0.020947265625
0.0, 0.0, 0.0, 0.0064453125
0.0, 0.0, 0.0, 0.0
0.004833984375, 0.0, 0.0, 0.0
0.0, 0.0, 0.0, 0.0064453125
0.0, 0.0, 0.0, 0.0
0.017724609375, 0.0, 0.0, 0.0
0.00322265625, 0.0, 0.0, 0.0193359375
0.011279296875, 0.011279296875, 0.012890625, 0.0249755859375
0.02900390625, 0.0249755859375, 0.027392578125, 0.0314208984375
0.04189453125, 0.043505859375, 0.046728515625, 0.030615234375
0.062841796875, 0.069287109375, 0.078955078125, 0.037060546875
0.082177734375, 0.095068359375, 0.1095703125, 0.0451171875
0.103125, 0.101513671875, 0.117626953125, 0.06123046875
0.13212890625, 0.128100585938, 0.124072265625, 0.05478515625
0.10634765625, 0.103125, 0.0926513671875, 0.0475341796875
0.062841796875, 0.0765380859375, 0.098291015625, 0.037060546875
0.04189453125, 0.053173828125, 0.066064453125, 0.02255859375
0.0, 0.0, 0.0, 0.0072509765625
0.0, 0.0, 0.0, 0.0
0.004833984375, 0.0, 0.0, 0.0
0.0, 0.0, 0.0, 0.008056640625
0.0, 0.0, 0.0, 0.0
0.0120849609375, 0.0, 0.0, 0.0
0.004833984375, 0.00322265625, 0.001611328125, 0.0
0.024169921875, 0.01611328125, 0.008056640625, 0.0120849609375
0.02255859375, 0.024169921875, 0.027392578125, 0.02578125
0.037060546875, 0.0378662109375, 0.040283203125, 0.0322265625
0.0580078125, 0.062841796875, 0.072509765625, 0.040283203125
0.075732421875, 0.088623046875, 0.104736328125, 0.0451171875
0.09345703125, 0.108764648438, 0.105541992187, 0.053173828125
0.127294921875, 0.128100585938, 0.12890625, 0.0523681640625
0.107958984375, 0.104736328125, 0.098291015625, 0.0475341796875
0.069287109375, 0.08701171875, 0.0990966796875, 0.0378662109375
0.04833984375, 0.06123046875, 0.072509765625, 0.02900390625
0.0, 0.0, 0.0, 0.0064453125
0.0, 0.0, 0.0, 0.0
0.008056640625, 0.0, 0.0, 0.0
0.0, 0.0, 0.0, 0.0
0.011279296875, 0.0, 0.0, 0.0
0.0, 0.0, 0.0, 0.0
0.020947265625, 0.004833984375, 0.0, 0.00322265625
0.024169921875, 0.024169921875, 0.020947265625, 0.0
0.027392578125, 0.0249755859375, 0.02578125, 0.033837890625
0.037060546875, 0.0378662109375, 0.040283203125, 0.0322265625
0.049951171875, 0.056396484375, 0.066064453125, 0.0410888671875
0.075732421875, 0.08701171875, 0.0990966796875, 0.0451171875
0.09345703125, 0.107958984375, 0.098291015625, 0.0515625
0.13212890625, 0.127294921875, 0.124072265625, 0.05478515625
0.11279296875, 0.107958984375, 0.101513671875, 0.0475341796875
0.075732421875, 0.095068359375, 0.1095703125, 0.0378662109375
0.05478515625, 0.0636474609375, 0.078955078125, 0.027392578125
0.0, 0.001611328125, 0.001611328125, 0.0088623046875
0.0, 0.0, 0.0, 0.0
0.0, 0.0, 0.0, 0.0
0.008056640625, 0.0, 0.0, 0.0
0.0, 0.0, 0.0, 0.0120849609375
0.0, 0.0, 0.0, 0.0
0.020947265625, 0.0, 0.0, 0.0008056640625
0.00966796875, 0.00966796875, 0.008056640625, 0.0
0.024169921875, 0.017724609375, 0.0120849609375, 0.0217529296875
0.088623046875, 0.08701171875, 0.0862060546875, 0.0507568359375
0.0, 0.0, 0.0322265625, 0.0265869140625
0.94423828125, 0.539794921875, 0.388330078125, 0.09990234375
2.0625, 1.38735351562, 0.875756835938, 0.141796875
2.09633789062, 1.66127929687, 1.16499023437, 0.14501953125
2.16079101562, 1.82885742188, 1.33901367187, 0.140185546875
2.15595703125, 1.84013671875, 1.38815917969, 0.1353515625
0.3416015625, 0.568798828125, 0.543017578125, 0.038671875
0.0, 0.00966796875, 0.0346435546875, 0.017724609375
0.2255859375, 0.156298828125, 0.130517578125, 0.0410888671875
0.35126953125, 0.26748046875, 0.208666992188, 0.0636474609375
0.849169921875, 0.588134765625, 0.440698242188, 0.0837890625
1.31967773437, 0.952294921875, 0.640502929688, 0.105541992187
2.09633789062, 1.51142578125, 0.994995117188, 0.133740234375
2.43471679687, 2.02705078125, 1.44858398437, 0.140185546875
2.48305664062, 2.15756835938, 1.63549804688, 0.13857421875
2.52978515625, 2.21235351562, 1.6822265625, 0.141796875
2.5072265625, 2.20268554687, 1.69028320312, 0.136962890625
1.67900390625, 1.61616210937, 1.34868164063, 0.0966796875
0.642919921875, 0.665478515625, 0.575244140625, 0.0515625
0.668701171875, 0.508374023437, 0.408471679688, 0.0700927734375
0.791162109375, 0.58330078125, 0.446337890625, 0.082177734375
1.18110351562, 0.811303710938, 0.588940429687, 0.0894287109375
1.50014648437, 1.07797851562, 0.708984375, 0.108764648438
2.38798828125, 1.82080078125, 1.23991699219, 0.13857421875
2.58134765625, 2.21557617188, 1.63872070313, 0.147436523437
2.616796875, 2.31870117188, 1.76440429688, 0.137768554687
2.62485351563, 2.32998046875, 1.791796875, 0.143408203125
2.55556640625, 2.27358398437, 1.740234375, 0.133740234375
1.4630859375, 1.46872558594, 1.2310546875, 0.0797607421875
0.62841796875, 0.611499023438, 0.5349609375, 0.053173828125
0.752490234375, 0.559130859375, 0.430224609375, 0.0708984375
0.87333984375, 0.630029296875, 0.465673828125, 0.078955078125
1.33579101562, 0.949072265625, 0.639697265625, 0.0990966796875
1.62260742188, 1.22944335937, 0.826611328125, 0.111987304688
2.3525390625, 1.80307617187, 1.22299804687, 0.1353515625
2.6490234375, 2.31547851562, 1.72976074219, 0.141796875
2.65224609375, 2.37509765625, 1.82241210937, 0.136962890625
2.61840820313, 2.35817871094, 1.83288574219, 0.136962890625
2.33803710937, 2.16401367187, 1.7208984375, 0.124072265625
1.21010742187, 1.26892089844, 1.07797851562, 0.0717041015625
0.694482421875, 0.623583984375, 0.491455078125, 0.0636474609375
0.78310546875, 0.588134765625, 0.459228515625, 0.0733154296875
1.00385742187, 0.714624023438, 0.536572265625, 0.085400390625
1.4888671875, 1.06911621094, 0.704150390625, 0.104736328125
1.95615234375, 1.47114257812, 0.981298828125, 0.127294921875
2.6103515625, 2.13259277344, 1.51303710937, 0.140185546875
2.66030273437, 2.36462402344, 1.79421386719, 0.141796875
2.67319335938, 2.40087890625, 1.843359375, 0.140991210938
2.63291015625, 2.34770507812, 1.8240234375, 0.136962890625
2.25424804688, 2.09150390625, 1.65805664062, 0.115209960937
1.01513671875, 1.06911621094, 0.915234375, 0.06767578125
0.681591796875, 0.579272460938, 0.463256835938, 0.064453125
0.92490234375, 0.663061523437, 0.4962890625, 0.0829833984375
1.08120117187, 0.758935546875, 0.549462890625, 0.0894287109375
1.46791992187, 1.10778808594, 0.742822265625, 0.104736328125
2.18818359375, 1.64194335937, 1.1279296875, 0.13212890625
2.62888183594, 2.21396484375, 1.59682617187, 0.140991210938
2.66513671875, 2.39443359375, 1.83046875, 0.136962890625
2.65869140625, 2.39685058594, 1.85141601562, 0.140185546875
2.6232421875, 2.36704101563, 1.84497070313, 0.136962890625
2.0044921875, 1.89653320313, 1.53640136719, 0.098291015625
0.668701171875, 0.656616210938, 0.555908203125, 0.06123046875
0.758935546875, 0.572021484375, 0.4447265625, 0.0708984375
0.87333984375, 0.630029296875, 0.466479492188, 0.078955078125
1.24072265625, 0.836279296875, 0.575244140625, 0.0958740234375
1.62744140625, 1.22380371094, 0.820166015625, 0.111987304688
2.31547851562, 1.78374023438, 1.21977539063, 0.1353515625
2.64741210937, 2.27197265625, 1.64838867187, 0.143408203125
2.68447265625, 2.3912109375, 1.8369140625, 0.136962890625
2.65385742187, 2.38234863281, 1.83530273437, 0.14501953125
2.565234375, 2.31547851562, 1.80307617187, 0.131323242187
1.19721679687, 1.24958496094, 1.05864257813, 0.072509765625
0.6767578125, 0.60263671875, 0.497900390625, 0.06123046875
0.768603515625, 0.57685546875, 0.446337890625, 0.072509765625
0.913623046875, 0.66064453125, 0.491455078125, 0.0894287109375
1.38896484375, 0.971630859375, 0.659033203125, 0.09345703125
1.76440429688, 1.28745117187, 0.855615234375, 0.115209960937
2.47338867188, 1.95454101562, 1.34948730469, 0.140991210938
2.67319335938, 2.36704101563, 1.79340820312, 0.140991210938
2.69575195312, 2.39282226563, 1.83933105469, 0.136157226563
2.6876953125, 2.371875, 1.83046875, 0.144213867188
2.28647460938, 2.09311523438, 1.66127929687, 0.115209960937
0.99580078125, 1.04252929688, 0.884619140625, 0.062841796875
0.66064453125, 0.55107421875, 0.43828125, 0.062841796875
0.76376953125, 0.57041015625, 0.439892578125, 0.07412109375
1.10698242188, 0.752490234375, 0.54140625, 0.0894287109375
1.42763671875, 1.03447265625, 0.679174804687, 0.098291015625
1.89814453125, 1.41313476563, 0.949072265625, 0.118432617188
2.65869140625, 2.22685546875, 1.60327148438, 0.144213867188
2.6748046875, 2.38959960937, 1.817578125, 0.143408203125
2.70703125, 2.40571289062, 1.85625, 0.140991210938
2.668359375, 2.38315429688, 1.84174804687, 0.137768554687
1.98837890625, 1.88041992188, 1.52270507813, 0.0966796875
0.8056640625, 0.849975585938, 0.726708984375, 0.0604248046875
0.7154296875, 0.552685546875, 0.427807617187, 0.0668701171875
0.823388671875, 0.611499023438, 0.478564453125, 0.07734375
1.2697265625, 0.842724609375, 0.581689453125, 0.0958740234375
1.64677734375, 1.22944335937, 0.820166015625, 0.1095703125
2.35737304687, 1.79985351563, 1.22944335937, 0.139379882812
2.6619140625, 2.28486328125, 1.66450195312, 0.144213867188
2.67319335938, 2.3912109375, 1.8240234375, 0.137768554687
2.64096679688, 2.36140136719, 1.83530273437, 0.140185546875
2.57651367188, 2.34528808594, 1.83046875, 0.131323242187
1.60327148438, 1.62260742188, 1.36640625, 0.08701171875
0.66708984375, 0.579272460938, 0.478564453125, 0.059619140625
0.733154296875, 0.540600585937, 0.414111328125, 0.07412109375
0.85400390625, 0.604248046875, 0.472119140625, 0.07734375
1.31323242188, 0.901538085938, 0.623583984375, 0.0966796875
1.73056640625, 1.29228515625, 0.858837890625, 0.115209960937
2.5072265625, 1.93842773437, 1.33579101562, 0.141796875
2.64580078125, 2.29291992187, 1.69350585937, 0.144213867188
2.63129882812, 2.35173339844, 1.82563476562, 0.140991210938
2.616796875, 2.34528808594, 1.83046875, 0.13857421875
2.45888671875, 2.23974609375, 1.75473632812, 0.12890625
1.27133789062, 1.31645507813, 1.121484375, 0.0708984375
0.64130859375, 0.520458984375, 0.410888671875, 0.0604248046875
0.6896484375, 0.526904296875, 0.399609375, 0.072509765625
1.07958984375, 0.733154296875, 0.530126953125, 0.085400390625
1.37768554688, 0.952294921875, 0.64453125, 0.09990234375
1.8240234375, 1.36962890625, 0.917651367188, 0.124877929688
2.58295898437, 2.08022460937, 1.4501953125, 0.143408203125
2.60310058594, 2.28566894531, 1.71042480469, 0.14501953125
2.60874023438, 2.31708984375, 1.77890625, 0.137768554687
2.48305664062, 2.22041015625, 1.73217773438, 0.13857421875
2.23330078125, 2.07458496094, 1.6306640625, 0.116015625
0.0, 0.115209960937, 0.20625, 0.0064453125
0.0, 0.0, 0.0, 0.00966796875
0.0, 0.0, 0.0, 0.01611328125
0.0, 0.0, 0.0, 0.0
0.0120849609375, 0.0, 0.0, 0.0
0.0, 0.0, 0.0, 0.0
0.020947265625, 0.0, 0.0, 0.0
0.0, 0.0, 0.0, 0.0
0.033837890625, 0.521264648438, 0.291650390625, 0.21591796875
1.56298828125, 0.91845703125, 0.620361328125, 0.11923828125
2.07377929687, 1.66853027344, 1.14243164062, 0.147436523437
2.02543945312, 1.69028320312, 1.24555664062, 0.140991210938
0.89912109375, 0.811303710938, 0.668701171875, 0.08701171875
0.372216796875, 0.365771484375, 0.330322265625, 0.06123046875
0.0, 0.0, 0.0, 0.0088623046875
0.0, 0.0, 0.0, 0.0
0.011279296875, 0.0, 0.0, 0.0
0.0, 0.0, 0.0, 0.0120849609375
0.0, 0.0, 0.0, 0.01611328125
0.0064453125, 0.001611328125, 0.001611328125, 0.0
0.024169921875, 0.0120849609375, 0.008056640625, 0.0120849609375
0.02900390625, 0.0249755859375, 0.0281982421875, 0.027392578125
0.04189453125, 0.043505859375, 0.046728515625, 0.027392578125
0.049951171875, 0.056396484375, 0.064453125, 0.0346435546875
0.08056640625, 0.088623046875, 0.103125, 0.0443115234375
0.09345703125, 0.107958984375, 0.104736328125, 0.0475341796875
0.133740234375, 0.128100585938, 0.12890625, 0.0580078125
0.11923828125, 0.114404296875, 0.1095703125, 0.0451171875
0.082177734375, 0.101513671875, 0.111987304688, 0.0410888671875
0.062841796875, 0.075732421875, 0.090234375, 0.030615234375
0.011279296875, 0.017724609375, 0.020947265625, 0.0153076171875
0.0, 0.0, 0.0, 0.0056396484375
0.0, 0.0, 0.0, 0.0064453125
0.0, 0.0, 0.0, 0.0
0.011279296875, 0.0, 0.0, 0.0
0.0, 0.0, 0.0, 0.0153076171875
0.00966796875, 0.004833984375, 0.001611328125, 0.0249755859375
0.02255859375, 0.024169921875, 0.02578125, 0.0
0.030615234375, 0.030615234375, 0.0281982421875, 0.033837890625
0.037060546875, 0.043505859375, 0.046728515625, 0.03544921875
0.049951171875, 0.056396484375, 0.064453125, 0.0378662109375
0.07412109375, 0.082177734375, 0.098291015625, 0.038671875
0.088623046875, 0.103125, 0.0966796875, 0.04833984375
0.12568359375, 0.120849609375, 0.120849609375, 0.0507568359375
0.09990234375, 0.114404296875, 0.104736328125, 0.0451171875
0.07412109375, 0.088623046875, 0.104736328125, 0.033837890625
0.037060546875, 0.0443115234375, 0.053173828125, 0.0193359375
0.0, 0.001611328125, 0.001611328125, 0.008056640625
0.0, 0.0, 0.0, 0.0056396484375
0.0, 0.0, 0.0, 0.0
0.020947265625, 0.0, 0.0, 0.0
0.00966796875, 0.004833984375, 0.001611328125, 0.0
0.030615234375, 0.024169921875, 0.017724609375, 0.024169921875
0.037060546875, 0.0378662109375, 0.043505859375, 0.0330322265625
0.043505859375, 0.049951171875, 0.053173828125, 0.0281982421875
0.0451171875, 0.0507568359375, 0.059619140625, 0.0281982421875
0.04833984375, 0.053173828125, 0.059619140625, 0.0281982421875
0.049951171875, 0.056396484375, 0.066064453125, 0.0378662109375
0.06123046875, 0.0636474609375, 0.07734375, 0.0378662109375
0.07412109375, 0.082177734375, 0.0926513671875, 0.040283203125
0.062841796875, 0.075732421875, 0.090234375, 0.030615234375
0.04833984375, 0.056396484375, 0.066064453125, 0.0322265625
0.043505859375, 0.049951171875, 0.059619140625, 0.0281982421875
0.037060546875, 0.043505859375, 0.0475341796875, 0.0281982421875
0.02255859375, 0.024169921875, 0.027392578125, 0.0217529296875
0.011279296875, 0.0120849609375, 0.014501953125, 0.0193359375
0.011279296875, 0.00966796875, 0.008056640625, 0.0265869140625
0.0193359375, 0.017724609375, 0.0193359375, 0.0265869140625
0.024169921875, 0.0249755859375, 0.027392578125, 0.0281982421875
0.043505859375, 0.04833984375, 0.053173828125, 0.0281982421875
0.04189453125, 0.04833984375, 0.053173828125, 0.0314208984375
0.04189453125, 0.0443115234375, 0.049951171875, 0.0281982421875
0.043505859375, 0.049951171875, 0.059619140625, 0.0322265625
0.04833984375, 0.053173828125, 0.0604248046875, 0.030615234375
0.049951171875, 0.056396484375, 0.066064453125, 0.0346435546875
0.062841796875, 0.072509765625, 0.0837890625, 0.03544921875
0.049951171875, 0.062841796875, 0.072509765625, 0.02900390625
0.043505859375, 0.053173828125, 0.0604248046875, 0.0322265625
0.04189453125, 0.049951171875, 0.059619140625, 0.02900390625
0.03544921875, 0.037060546875, 0.040283203125, 0.024169921875
0.02255859375, 0.024169921875, 0.027392578125, 0.0193359375
0.01611328125, 0.0120849609375, 0.014501953125, 0.0193359375
0.01611328125, 0.0120849609375, 0.014501953125, 0.020947265625
0.02255859375, 0.02255859375, 0.020947265625, 0.02578125
0.0322265625, 0.033837890625, 0.040283203125, 0.0322265625
0.043505859375, 0.0443115234375, 0.0475341796875, 0.02900390625
0.04189453125, 0.0443115234375, 0.0475341796875, 0.027392578125
0.037060546875, 0.043505859375, 0.049951171875, 0.02900390625
0.037060546875, 0.043505859375, 0.049951171875, 0.0322265625
0.04833984375, 0.053173828125, 0.059619140625, 0.0362548828125
0.049951171875, 0.0572021484375, 0.066064453125, 0.033837890625
0.06123046875, 0.0700927734375, 0.0837890625, 0.0322265625
0.04833984375, 0.056396484375, 0.064453125, 0.0322265625
0.04833984375, 0.053173828125, 0.0604248046875, 0.0322265625
0.043505859375, 0.049951171875, 0.0580078125, 0.0314208984375
0.037060546875, 0.043505859375, 0.046728515625, 0.0217529296875
0.017724609375, 0.024169921875, 0.0281982421875, 0.020947265625
0.01611328125, 0.0120849609375, 0.014501953125, 0.0193359375
0.01611328125, 0.0120849609375, 0.012890625, 0.020947265625
0.02255859375, 0.02255859375, 0.02578125, 0.020947265625
0.02900390625, 0.0249755859375, 0.0281982421875, 0.0314208984375
0.037060546875, 0.043505859375, 0.0475341796875, 0.0281982421875
0.04189453125, 0.04833984375, 0.053173828125, 0.0314208984375
0.04189453125, 0.04833984375, 0.053173828125, 0.0281982421875
0.0451171875, 0.04833984375, 0.053173828125, 0.0322265625
0.049951171875, 0.0572021484375, 0.066064453125, 0.033837890625
0.056396484375, 0.062841796875, 0.072509765625, 0.037060546875
0.06767578125, 0.0765380859375, 0.090234375, 0.0378662109375
0.049951171875, 0.06123046875, 0.0668701171875, 0.027392578125
0.04833984375, 0.053173828125, 0.059619140625, 0.0322265625
0.043505859375, 0.049951171875, 0.059619140625, 0.02900390625
0.02900390625, 0.037060546875, 0.040283203125, 0.020947265625
0.01611328125, 0.017724609375, 0.0193359375, 0.017724609375
0.00322265625, 0.00322265625, 0.001611328125, 0.01611328125
0.00966796875, 0.004833984375, 0.001611328125, 0.0
0.020947265625, 0.00966796875, 0.004833984375, 0.011279296875
0.017724609375, 0.017724609375, 0.0193359375, 0.0314208984375
0.0322265625, 0.03544921875, 0.040283203125, 0.027392578125
0.04189453125, 0.04189453125, 0.0451171875, 0.0346435546875
0.0451171875, 0.049951171875, 0.053173828125, 0.03544921875
0.04833984375, 0.05478515625, 0.064453125, 0.033837890625
0.06123046875, 0.06767578125, 0.07734375, 0.0378662109375
0.062841796875, 0.07412109375, 0.085400390625, 0.037060546875
0.08056640625, 0.0894287109375, 0.105541992187, 0.0443115234375
0.06767578125, 0.0765380859375, 0.091845703125, 0.033837890625
0.04833984375, 0.0572021484375, 0.0668701171875, 0.030615234375
0.037060546875, 0.043505859375, 0.053173828125, 0.030615234375
0.02255859375, 0.024169921875, 0.027392578125, 0.014501953125
0.0, 0.0, 0.0, 0.014501953125
0.0, 0.0, 0.0, 0.0
0.020947265625, 0.0, 0.0, 0.0
0.004833984375, 0.00322265625, 0.001611328125, 0.0
0.024169921875, 0.00966796875, 0.0024169921875, 0.0056396484375
0.024169921875, 0.024169921875, 0.02578125, 0.0
0.030615234375, 0.02900390625, 0.02578125, 0.033837890625
0.037060546875, 0.0378662109375, 0.0451171875, 0.033837890625
0.04189453125, 0.0443115234375, 0.049951171875, 0.027392578125
0.04189453125, 0.04833984375, 0.053173828125, 0.0346435546875
0.075732421875, 0.08701171875, 0.098291015625, 0.040283203125
0.08701171875, 0.09990234375, 0.117626953125, 0.046728515625
0.11279296875, 0.104736328125, 0.104736328125, 0.046728515625
0.095068359375, 0.11279296875, 0.098291015625, 0.043505859375
0.082177734375, 0.101513671875, 0.111181640625, 0.038671875
0.049951171875, 0.062841796875, 0.072509765625, 0.0281982421875
0.01611328125, 0.024169921875, 0.0281982421875, 0.011279296875
0.0, 0.0, 0.0, 0.0040283203125
0.0, 0.0, 0.0, 0.0
0.008056640625, 0.0, 0.0, 0.0
0.0, 0.0, 0.0, 0.0088623046875
0.0, 0.0, 0.0, 0.011279296875
0.0, 0.0, 0.0, 0.0
0.011279296875, 0.0, 0.0, 0.0
0.0, 0.0, 0.0, 0.0120849609375
0.107958984375, 0.049951171875, 0.040283203125, 0.038671875
0.92490234375, 0.592163085938, 0.4189453125, 0.0990966796875
2.09794921875, 1.340625, 0.85078125, 0.140185546875
2.22685546875, 1.80146484375, 1.2568359375, 0.143408203125
2.22685546875, 1.8884765625, 1.39460449219, 0.136962890625
2.27036132813, 1.93520507812, 1.46469726562, 0.140185546875
2.12373046875, 1.88041992188, 1.43327636719, 0.129711914062
0.391552734375, 0.649365234375, 0.601025390625, 0.040283203125
0.0, 0.0, 0.008056640625, 0.0064453125
0.0, 0.0, 0.0, 0.0
0.024169921875, 0.0, 0.0, 0.00322265625
0.15791015625, 0.11279296875, 0.0797607421875, 0.0
0.049951171875, 0.418139648438, 0.272314453125, 0.205444335938
0.95068359375, 0.656616210938, 0.4833984375, 0.08701171875
1.5791015625, 1.07797851562, 0.704956054688, 0.118432617188
2.42666015625, 1.89733886719, 1.26489257813, 0.143408203125
2.47016601562, 2.17045898437, 1.5919921875, 0.145825195312
2.47983398438, 2.18818359375, 1.67094726563, 0.136962890625
2.47419433594, 2.20349121094, 1.68061523437, 0.140991210938
1.91909179687, 1.78696289062, 1.42924804688, 0.098291015625
0.0, 0.140991210938, 0.207861328125, 0.0153076171875
0.0, 0.0, 0.0064453125, 0.0193359375
0.0, 0.0, 0.0064453125, 0.027392578125
0.15791015625, 0.127294921875, 0.104736328125, 0.0
0.046728515625, 0.339990234375, 0.243310546875, 0.185302734375
0.80888671875, 0.597802734375, 0.452783203125, 0.08056640625
1.14243164062, 0.785522460938, 0.569604492188, 0.0958740234375
1.91103515625, 1.40185546875, 0.926513671875, 0.1224609375
2.53461914062, 2.00932617187, 1.3921875, 0.137768554687
2.52495117187, 2.22524414062, 1.67094726563, 0.1353515625
2.2623046875, 2.09633789062, 1.63872070313, 0.13212890625
1.69189453125, 1.59763183594, 1.31000976562, 0.091845703125
0.417333984375, 0.520458984375, 0.472119140625, 0.040283203125
0.0322265625, 0.0249755859375, 0.033837890625, 0.0217529296875
0.04189453125, 0.04833984375, 0.053173828125, 0.0322265625
0.1224609375, 0.107958984375, 0.091845703125, 0.0443115234375
0.45439453125, 0.339990234375, 0.247338867188, 0.059619140625
0.939404296875, 0.64775390625, 0.476953125, 0.078955078125
1.55654296875, 1.08120117187, 0.710595703125, 0.111181640625
1.91103515625, 1.42924804688, 0.955517578125, 0.1224609375
2.60712890625, 2.20268554687, 1.58393554687, 0.140185546875
2.565234375, 2.28325195312, 1.72331542969, 0.140185546875
2.23491210937, 2.08103027344, 1.63872070313, 0.124072265625
1.47919921875, 1.43408203125, 1.19479980469, 0.0837890625
0.03544921875, 0.134545898438, 0.169995117187, 0.0249755859375
0.07412109375, 0.082177734375, 0.090234375, 0.027392578125
0.107958984375, 0.095068359375, 0.104736328125, 0.0378662109375
0.40927734375, 0.307763671875, 0.244921875, 0.0580078125
0.75732421875, 0.559130859375, 0.425390625, 0.07734375
1.15854492187, 0.778271484375, 0.562353515625, 0.088623046875
1.74345703125, 1.29067382812, 0.845947265625, 0.11923828125
2.487890625, 1.89411621094, 1.29711914063, 0.13857421875
2.6232421875, 2.27358398437, 1.66772460938, 0.140991210938
2.45888671875, 2.23168945313, 1.72573242187, 0.12890625
1.6306640625, 1.58393554687, 1.301953125, 0.0862060546875
0.38349609375, 0.495483398438, 0.476953125, 0.038671875
0.04833984375, 0.069287109375, 0.0966796875, 0.02578125
0.062841796875, 0.06767578125, 0.07734375, 0.033837890625
0.24169921875, 0.179663085937, 0.150659179688, 0.0507568359375
0.51240234375, 0.394775390625, 0.304541015625, 0.069287109375
0.97646484375, 0.675146484375, 0.502734375, 0.078955078125
1.47758789063, 0.997412109375, 0.672729492188, 0.104736328125
2.0302734375, 1.53076171875, 1.03366699219, 0.124072265625
2.62888183594, 2.18012695312, 1.546875, 0.143408203125
2.5845703125, 2.30258789063, 1.76198730469, 0.136962890625
2.32192382812, 2.09392089844, 1.63227539062, 0.124072265625
1.35834960937, 1.33256835938, 1.12631835937, 0.0765380859375
0.19013671875, 0.294873046875, 0.309375, 0.027392578125
0.05478515625, 0.056396484375, 0.066064453125, 0.02578125
0.172412109375, 0.128100585938, 0.104736328125, 0.040283203125
0.301318359375, 0.243310546875, 0.1869140625, 0.0507568359375
0.784716796875, 0.572827148437, 0.427001953125, 0.0733154296875
1.07314453125, 0.733154296875, 0.528515625, 0.0862060546875
1.81596679688, 1.31403808594, 0.866088867188, 0.118432617188
2.47016601562, 1.91264648438, 1.31484375, 0.140991210938
2.60551757812, 2.25827636719, 1.68706054688, 0.136962890625
2.3912109375, 2.16240234375, 1.69995117188, 0.130517578125
1.77729492187, 1.65563964844, 1.32290039062, 0.098291015625
0.52529296875, 0.623583984375, 0.555908203125, 0.0451171875
0.0, 0.0185302734375, 0.0580078125, 0.0193359375
0.04833984375, 0.053173828125, 0.059619140625, 0.0322265625
0.09345703125, 0.0958740234375, 0.103125, 0.0410888671875
0.46728515625, 0.334350585938, 0.246533203125, 0.0580078125
0.89267578125, 0.623583984375, 0.451171875, 0.078955078125
1.3212890625, 0.888647460937, 0.614721679687, 0.103125
2.3138671875, 1.71364746094, 1.12309570313, 0.139379882812
2.616796875, 2.24780273438, 1.64516601562, 0.14501953125
2.578125, 2.28647460938, 1.73862304687, 0.137768554687
2.48950195313, 2.20993652344, 1.72250976562, 0.1353515625
2.09311523438, 1.93520507812, 1.55573730469, 0.108764648438
0.39638671875, 0.591357421875, 0.582495117187, 0.033837890625
0.0, 0.0, 0.008056640625, 0.0193359375
0.0, 0.0, 0.0, 0.027392578125
0.211083984375, 0.140991210938, 0.116015625, 0.046728515625
0.591357421875, 0.437475585937, 0.309375, 0.075732421875
1.00224609375, 0.688037109375, 0.5091796875, 0.085400390625
1.96743164062, 1.32692871094, 0.863671875, 0.124072265625
2.52978515625, 2.06491699219, 1.43247070312, 0.145825195312
2.56362304687, 2.26713867187, 1.71928710938, 0.140185546875
2.55234375, 2.27197265625, 1.73540039063, 0.141796875
2.50239257812, 2.19462890625, 1.68706054688, 0.1353515625
1.66611328125, 1.64033203125, 1.37526855469, 0.0958740234375
0.0708984375, 0.275537109375, 0.324682617187, 0.0193359375
0.0, 0.0, 0.0, 0.0233642578125
0.04833984375, 0.037060546875, 0.040283203125, 0.033837890625
0.31259765625, 0.207861328125, 0.150659179688, 0.053173828125
0.707373046875, 0.520458984375, 0.363354492187, 0.07734375
1.21010742187, 0.80888671875, 0.588134765625, 0.091845703125
2.20107421875, 1.54204101563, 1.01352539062, 0.136962890625
2.513671875, 2.09794921875, 1.50014648437, 0.141796875
2.49916992187, 2.20107421875, 1.67094726563, 0.140991210938
2.47177734375, 2.21879882812, 1.7015625, 0.137768554687
2.46694335937, 2.21235351562, 1.69753417969, 0.1353515625
1.04252929688, 1.21735839844, 1.07153320313, 0.0636474609375
0.0, 0.0, 0.066064453125, 0.0
0.0, 0.0, 0.0, 0.0
0.008056640625, 0.0, 0.0, 0.0
0.0, 0.0, 0.0, 0.0
0.008056640625, 0.0, 0.0, 0.0
0.0, 0.0, 0.0, 0.008056640625
0.0, 0.0, 0.0, 0.0064453125
0.165966796875, 0.095068359375, 0.078955078125, 0.0
0.046728515625, 1.17143554688, 0.663061523437, 0.411694335937
2.05927734375, 1.43649902344, 0.917651367188, 0.15146484375
1.83208007813, 1.55895996094, 1.15532226563, 0.14501953125
0.49306640625, 0.585717773438, 0.54140625, 0.0717041015625
0.114404296875, 0.127294921875, 0.1353515625, 0.0346435546875
0.05478515625, 0.07412109375, 0.090234375, 0.024169921875
0.0, 0.0, 0.0, 0.0064453125
0.0, 0.0, 0.0, 0.0
0.004833984375, 0.0, 0.0, 0.0
0.0, 0.0, 0.0, 0.0
0.011279296875, 0.0, 0.0, 0.0
0.00322265625, 0.0, 0.0, 0.0
0.020947265625, 0.004833984375, 0.001611328125, 0.0072509765625
0.02255859375, 0.017724609375, 0.0193359375, 0.0
0.027392578125, 0.0249755859375, 0.0217529296875, 0.0298095703125
0.037060546875, 0.0378662109375, 0.040283203125, 0.0281982421875
0.056396484375, 0.062841796875, 0.072509765625, 0.038671875
0.07412109375, 0.0829833984375, 0.098291015625, 0.04189453125
0.090234375, 0.10634765625, 0.101513671875, 0.0507568359375
0.13212890625, 0.127294921875, 0.124877929688, 0.049951171875
0.10634765625, 0.103125, 0.098291015625, 0.043505859375
0.07412109375, 0.088623046875, 0.103125, 0.037060546875
0.03544921875, 0.043505859375, 0.053173828125, 0.02578125
0.0, 0.0, 0.0, 0.0088623046875
0.0, 0.0, 0.0, 0.004833984375
0.0, 0.0, 0.0, 0.0
0.011279296875, 0.0, 0.0, 0.0
0.0, 0.0, 0.0, 0.0088623046875
0.0, 0.0, 0.0, 0.02255859375
0.0064453125, 0.004833984375, 0.0064453125, 0.0
0.027392578125, 0.0185302734375, 0.0120849609375, 0.017724609375
0.024169921875, 0.024169921875, 0.027392578125, 0.02578125
0.04189453125, 0.0443115234375, 0.0475341796875, 0.033837890625
0.06123046875, 0.0636474609375, 0.07734375, 0.043505859375
0.08056640625, 0.0894287109375, 0.103125, 0.04189453125
0.09990234375, 0.114404296875, 0.111181640625, 0.053173828125
0.1224609375, 0.121655273437, 0.124072265625, 0.0515625
0.0966796875, 0.107958984375, 0.0990966796875, 0.043505859375
0.062841796875, 0.0765380859375, 0.0926513671875, 0.0346435546875
0.037060546875, 0.04833984375, 0.0580078125, 0.020947265625
0.0, 0.0, 0.0, 0.0064453125
0.0, 0.0, 0.0, 0.0
0.008056640625, 0.0, 0.0, 0.0
0.0, 0.0, 0.0, 0.0120849609375
0.0, 0.0, 0.0, 0.0
0.017724609375, 0.0, 0.0, 0.0
0.0064453125, 0.004833984375, 0.0064453125, 0.0
0.027392578125, 0.017724609375, 0.011279296875, 0.0120849609375
0.02900390625, 0.0249755859375, 0.027392578125, 0.02578125
0.03544921875, 0.037060546875, 0.0410888671875, 0.0322265625
0.056396484375, 0.062841796875, 0.0708984375, 0.0410888671875
0.07412109375, 0.082177734375, 0.0966796875, 0.040283203125
0.09345703125, 0.107958984375, 0.103125, 0.056396484375
0.11923828125, 0.114404296875, 0.111181640625, 0.0451171875
0.095068359375, 0.107958984375, 0.103125, 0.040283203125
0.069287109375, 0.0829833984375, 0.098291015625, 0.0322265625
0.04189453125, 0.053173828125, 0.064453125, 0.024169921875
0.0, 0.0, 0.0, 0.008056640625
0.0, 0.0, 0.0, 0.0
0.008056640625, 0.0, 0.0, 0.0
0.0, 0.0, 0.0, 0.0
0.0120849609375, 0.0, 0.0, 0.0
0.00322265625, 0.0, 0.0, 0.0
0.020947265625, 0.011279296875, 0.004833984375, 0.00966796875
0.02255859375, 0.02255859375, 0.02578125, 0.02900390625
0.030615234375, 0.030615234375, 0.0322265625, 0.030615234375
0.037060546875, 0.0378662109375, 0.0451171875, 0.033837890625
0.062841796875, 0.069287109375, 0.078955078125, 0.0410888671875
0.075732421875, 0.088623046875, 0.104736328125, 0.046728515625
0.10634765625, 0.103125, 0.098291015625, 0.053173828125
0.1224609375, 0.115209960937, 0.111181640625, 0.049951171875
0.088623046875, 0.107958984375, 0.0966796875, 0.0378662109375
0.06123046875, 0.075732421875, 0.090234375, 0.0314208984375
0.037060546875, 0.043505859375, 0.0515625, 0.02255859375
0.0, 0.0, 0.0, 0.004833984375
0.0, 0.0, 0.0, 0.0
0.008056640625, 0.0, 0.0, 0.0
0.0, 0.0, 0.0, 0.0153076171875
0.0, 0.0, 0.0, 0.02255859375
0.00966796875, 0.004833984375, 0.0024169921875, 0.0
0.024169921875, 0.0120849609375, 0.008056640625, 0.0120849609375
0.024169921875, 0.024169921875, 0.027392578125, 0.0281982421875
0.037060546875, 0.037060546875, 0.038671875, 0.02900390625
0.04833984375, 0.053173828125, 0.059619140625, 0.033837890625
0.06767578125, 0.075732421875, 0.085400390625, 0.037060546875
0.082177734375, 0.095068359375, 0.111181640625, 0.0539794921875
0.11279296875, 0.11279296875, 0.111181640625, 0.0572021484375
0.103125, 0.095068359375, 0.1095703125, 0.046728515625
0.0837890625, 0.101513671875, 0.117626953125, 0.038671875
0.056396484375, 0.06767578125, 0.078955078125, 0.0281982421875
0.0064453125, 0.011279296875, 0.012890625, 0.008056640625
0.0, 0.0, 0.0, 0.001611328125
0.0, 0.0, 0.0, 0.0
0.011279296875, 0.0, 0.0, 0.0
0.0, 0.0, 0.0, 0.0088623046875
0.0, 0.0, 0.0, 0.024169921875
0.00966796875, 0.0056396484375, 0.0064453125, 0.0
0.024169921875, 0.017724609375, 0.0120849609375, 0.017724609375
0.024169921875, 0.0249755859375, 0.027392578125, 0.02578125
0.037060546875, 0.043505859375, 0.046728515625, 0.0378662109375
0.05478515625, 0.062841796875, 0.072509765625, 0.0410888671875
0.069287109375, 0.082177734375, 0.098291015625, 0.04189453125
0.08701171875, 0.101513671875, 0.117626953125, 0.049951171875
0.11923828125, 0.114404296875, 0.117626953125, 0.0523681640625
0.095068359375, 0.114404296875, 0.103125, 0.0443115234375
0.06767578125, 0.0765380859375, 0.0926513671875, 0.0322265625
0.04189453125, 0.049951171875, 0.059619140625, 0.024169921875
0.0, 0.0, 0.0, 0.00966796875
0.0, 0.0, 0.0, 0.0
0.011279296875, 0.0, 0.0, 0.0
0.0, 0.0, 0.0, 0.0
0.0120849609375, 0.0, 0.0, 0.0
0.0, 0.0, 0.0, 0.02255859375
0.00966796875, 0.0056396484375, 0.0064453125, 0.020947265625
0.024169921875, 0.024169921875, 0.02578125, 0.0
0.030615234375, 0.02900390625, 0.02578125, 0.0314208984375
0.03544921875, 0.037060546875, 0.040283203125, 0.027392578125
0.049951171875, 0.05478515625, 0.059619140625, 0.0378662109375
0.06767578125, 0.0765380859375, 0.091845703125, 0.040283203125
0.10634765625, 0.09990234375, 0.124072265625, 0.053173828125
0.11923828125, 0.114404296875, 0.116015625, 0.0507568359375
0.0966796875, 0.108764648438, 0.104736328125, 0.04833984375
0.069287109375, 0.0829833984375, 0.0990966796875, 0.0378662109375
0.03544921875, 0.043505859375, 0.049951171875, 0.0153076171875
0.0, 0.00322265625, 0.001611328125, 0.008056640625
0.0, 0.0, 0.0, 0.001611328125
0.0, 0.0, 0.0, 0.0
0.011279296875, 0.0, 0.0, 0.0
0.0, 0.0, 0.0, 0.0088623046875
0.0, 0.0, 0.0, 0.02255859375
0.011279296875, 0.00966796875, 0.008056640625, 0.0
0.027392578125, 0.02255859375, 0.014501953125, 0.0193359375
0.02900390625, 0.0249755859375, 0.027392578125, 0.0281982421875
0.037060546875, 0.043505859375, 0.046728515625, 0.0346435546875
0.06123046875, 0.0636474609375, 0.072509765625, 0.040283203125
0.07412109375, 0.0829833984375, 0.098291015625, 0.040283203125
0.0966796875, 0.108764648438, 0.104736328125, 0.053173828125
0.114404296875, 0.108764648438, 0.104736328125, 0.0451171875
0.088623046875, 0.107958984375, 0.098291015625, 0.0459228515625
0.06123046875, 0.0636474609375, 0.0668701171875, 0.0169189453125
0.00322265625, 0.001611328125, 0.001611328125, 0.012890625
0.0, 0.0, 0.0, 0.0
0.017724609375, 0.0, 0.0, 0.0
0.0064453125, 0.001611328125, 0.0, 0.0
0.024169921875, 0.01611328125, 0.008056640625, 0.0120849609375
0.02255859375, 0.02255859375, 0.0217529296875, 0.027392578125
0.037060546875, 0.0378662109375, 0.046728515625, 0.02900390625
0.04189453125, 0.043505859375, 0.046728515625, 0.027392578125
0.0451171875, 0.0515625, 0.053173828125, 0.02578125
0.037060546875, 0.043505859375, 0.0475341796875, 0.030615234375
0.0708984375, 0.082177734375, 0.085400390625, 0.0346435546875
0.0708984375, 0.08701171875, 0.098291015625, 0.033837890625
0.082177734375, 0.107958984375, 0.098291015625, 0.04189453125
0.064453125, 0.08056640625, 0.091845703125, 0.033837890625
0.04189453125, 0.04833984375, 0.059619140625, 0.0330322265625
0.024169921875, 0.024169921875, 0.033837890625, 0.0298095703125
0.011279296875, 0.00966796875, 0.0193359375, 0.020947265625
0.0, 0.0, 0.0, 0.0193359375
0.0, 0.0, 0.0, 0.02255859375
0.00966796875, 0.00966796875, 0.0088623046875, 0.0
0.024169921875, 0.02255859375, 0.017724609375, 0.0233642578125
0.024169921875, 0.0249755859375, 0.027392578125, 0.027392578125
0.037060546875, 0.037060546875, 0.0410888671875, 0.0281982421875
0.04189453125, 0.049951171875, 0.056396484375, 0.03544921875
0.04189453125, 0.049951171875, 0.053173828125, 0.027392578125
0.05478515625, 0.062841796875, 0.066064453125, 0.0322265625
0.06123046875, 0.0700927734375, 0.078955078125, 0.033837890625
0.0580078125, 0.069287109375, 0.078955078125, 0.033837890625
0.075732421875, 0.0894287109375, 0.098291015625, 0.038671875
0.07412109375, 0.0894287109375, 0.104736328125, 0.033837890625
0.049951171875, 0.06123046875, 0.0708984375, 0.027392578125
0.03544921875, 0.037060546875, 0.046728515625, 0.030615234375
0.017724609375, 0.017724609375, 0.027392578125, 0.024169921875
0.00966796875, 0.0056396484375, 0.012890625, 0.0233642578125
0.0, 0.0, 0.0, 0.014501953125
0.00966796875, 0.004833984375, 0.001611328125, 0.0249755859375
0.0193359375, 0.017724609375, 0.0153076171875, 0.0
0.024169921875, 0.02255859375, 0.0185302734375, 0.027392578125
0.03544921875, 0.03544921875, 0.040283203125, 0.027392578125
0.04189453125, 0.0443115234375, 0.049951171875, 0.0281982421875
0.04833984375, 0.056396484375, 0.059619140625, 0.0330322265625
0.0451171875, 0.05478515625, 0.0604248046875, 0.027392578125
0.06123046875, 0.069287109375, 0.07734375, 0.033837890625
0.0580078125, 0.0636474609375, 0.07734375, 0.037060546875
0.0708984375, 0.082177734375, 0.091845703125, 0.04189453125
0.075732421875, 0.0894287109375, 0.104736328125, 0.0322265625
0.04833984375, 0.062841796875, 0.072509765625, 0.0322265625
0.0322265625, 0.03544921875, 0.0451171875, 0.0281982421875
0.03544921875, 0.037060546875, 0.0451171875, 0.024169921875
0.011279296875, 0.00966796875, 0.014501953125, 0.0193359375
0.0, 0.0, 0.0, 0.0193359375
0.00322265625, 0.0, 0.0, 0.020947265625
0.017724609375, 0.01611328125, 0.014501953125, 0.0
0.024169921875, 0.0185302734375, 0.0153076171875, 0.024169921875
0.02900390625, 0.030615234375, 0.033837890625, 0.0281982421875
0.04833984375, 0.049951171875, 0.053173828125, 0.0322265625
0.043505859375, 0.053173828125, 0.059619140625, 0.0322265625
0.04833984375, 0.056396484375, 0.059619140625, 0.027392578125
0.049951171875, 0.0572021484375, 0.064453125, 0.0346435546875
0.056396484375, 0.0636474609375, 0.072509765625, 0.033837890625
0.06123046875, 0.0700927734375, 0.078955078125, 0.033837890625
0.08056640625, 0.0958740234375, 0.1095703125, 0.033837890625
0.049951171875, 0.062841796875, 0.07734375, 0.027392578125
0.04189453125, 0.046728515625, 0.0580078125, 0.03544921875
0.024169921875, 0.030615234375, 0.040283203125, 0.02900390625
0.02255859375, 0.0249755859375, 0.033837890625, 0.02578125
0.0, 0.0, 0.0, 0.0201416015625
0.0, 0.0, 0.0, 0.0
0.024169921875, 0.011279296875, 0.0024169921875, 0.0056396484375
0.02255859375, 0.017724609375, 0.0153076171875, 0.0
0.0249755859375, 0.0249755859375, 0.020947265625, 0.027392578125
0.037060546875, 0.0378662109375, 0.0410888671875, 0.0322265625
0.05478515625, 0.0572021484375, 0.0604248046875, 0.027392578125
0.04833984375, 0.053173828125, 0.059619140625, 0.0281982421875
0.04833984375, 0.05478515625, 0.059619140625, 0.030615234375
0.056396484375, 0.0636474609375, 0.0708984375, 0.03544921875
0.056396484375, 0.0636474609375, 0.072509765625, 0.0346435546875
0.075732421875, 0.088623046875, 0.098291015625, 0.03544921875
0.07412109375, 0.0894287109375, 0.103125, 0.0322265625
0.04833984375, 0.06123046875, 0.0708984375, 0.027392578125
0.037060546875, 0.043505859375, 0.049951171875, 0.027392578125
0.02255859375, 0.024169921875, 0.0322265625, 0.0314208984375
0.00966796875, 0.0056396484375, 0.014501953125, 0.020947265625
0.0, 0.0, 0.0, 0.0201416015625
0.00322265625, 0.001611328125, 0.001611328125, 0.0
0.024169921875, 0.0120849609375, 0.0056396484375, 0.011279296875
0.0193359375, 0.017724609375, 0.0193359375, 0.020947265625
0.037060546875, 0.037060546875, 0.040283203125, 0.030615234375
0.0451171875, 0.049951171875, 0.053173828125, 0.02900390625
0.049951171875, 0.0572021484375, 0.064453125, 0.0281982421875
0.0451171875, 0.053173828125, 0.059619140625, 0.027392578125
0.05478515625, 0.062841796875, 0.066064453125, 0.03544921875
0.056396484375, 0.069287109375, 0.078955078125, 0.0346435546875
0.06123046875, 0.069287109375, 0.078955078125, 0.03544921875
0.075732421875, 0.0894287109375, 0.0990966796875, 0.037060546875
0.062841796875, 0.0765380859375, 0.090234375, 0.027392578125
0.037060546875, 0.043505859375, 0.053173828125, 0.030615234375
0.037060546875, 0.0378662109375, 0.046728515625, 0.0281982421875
0.02255859375, 0.02255859375, 0.027392578125, 0.0281982421875
0.001611328125, 0.0, 0.0024169921875, 0.0193359375
0.0, 0.0, 0.0, 0.0217529296875
0.00966796875, 0.004833984375, 0.0024169921875, 0.0
0.024169921875, 0.017724609375, 0.011279296875, 0.017724609375
0.02255859375, 0.02255859375, 0.02578125, 0.02578125
0.037060546875, 0.0378662109375, 0.0410888671875, 0.0314208984375
0.0451171875, 0.049951171875, 0.0539794921875, 0.0322265625
0.0451171875, 0.05478515625, 0.0604248046875, 0.027392578125
0.046728515625, 0.05478515625, 0.059619140625, 0.0314208984375
0.056396484375, 0.0636474609375, 0.0708984375, 0.0322265625
0.06123046875, 0.07412109375, 0.0797607421875, 0.0322265625
0.075732421875, 0.0894287109375, 0.101513671875, 0.0410888671875
0.06767578125, 0.0829833984375, 0.098291015625, 0.02900390625
0.04833984375, 0.056396484375, 0.066064453125, 0.0281982421875
0.037060546875, 0.0378662109375, 0.046728515625, 0.02578125
0.0193359375, 0.02255859375, 0.0281982421875, 0.024169921875
0.00322265625, 0.0, 0.001611328125, 0.0193359375
0.0, 0.0, 0.0, 0.0
0.020947265625, 0.00322265625, 0.0, 0.0
0.017724609375, 0.017724609375, 0.014501953125, 0.0
0.027392578125, 0.02255859375, 0.017724609375, 0.024169921875
0.024169921875, 0.0249755859375, 0.027392578125, 0.0322265625
0.04189453125, 0.043505859375, 0.046728515625, 0.027392578125
0.04833984375, 0.05478515625, 0.059619140625, 0.0330322265625
0.04189453125, 0.049951171875, 0.0539794921875, 0.02900390625
0.0580078125, 0.069287109375, 0.072509765625, 0.0322265625
0.0580078125, 0.0636474609375, 0.072509765625, 0.0346435546875
0.06123046875, 0.07412109375, 0.082177734375, 0.033837890625
0.075732421875, 0.0958740234375, 0.1095703125, 0.033837890625
0.05478515625, 0.0700927734375, 0.0797607421875, 0.030615234375
0.03544921875, 0.043505859375, 0.053173828125, 0.0281982421875
0.024169921875, 0.030615234375, 0.040283203125, 0.024169921875
0.01611328125, 0.0120849609375, 0.0193359375, 0.020947265625
0.0, 0.0, 0.0, 0.0193359375
0.004833984375, 0.00322265625, 0.001611328125, 0.0
0.024169921875, 0.0120849609375, 0.004833984375, 0.008056640625
0.02255859375, 0.02255859375, 0.020947265625, 0.02900390625
0.024169921875, 0.0249755859375, 0.0281982421875, 0.02900390625
0.037060546875, 0.0378662109375, 0.0451171875, 0.02900390625
0.04833984375, 0.05478515625, 0.059619140625, 0.027392578125
0.037060546875, 0.043505859375, 0.0475341796875, 0.02900390625
0.049951171875, 0.06123046875, 0.066064453125, 0.0330322265625
0.06767578125, 0.0765380859375, 0.0797607421875, 0.0378662109375
0.06767578125, 0.0829833984375, 0.0926513671875, 0.033837890625
0.0837890625, 0.104736328125, 0.091845703125, 0.0346435546875
0.06123046875, 0.0765380859375, 0.091845703125, 0.030615234375
0.04189453125, 0.04833984375, 0.0580078125, 0.0322265625
0.0322265625, 0.03544921875, 0.0451171875, 0.02900390625
0.00966796875, 0.004833984375, 0.012890625, 0.020947265625
0.0, 0.0, 0.0, 0.014501953125
0.00322265625, 0.0, 0.0, 0.0
0.020947265625, 0.011279296875, 0.0056396484375, 0.00966796875
0.02255859375, 0.0185302734375, 0.020947265625, 0.0
0.027392578125, 0.024169921875, 0.020947265625, 0.0265869140625
0.030615234375, 0.0314208984375, 0.038671875, 0.0281982421875
0.038671875, 0.043505859375, 0.046728515625, 0.027392578125
0.04189453125, 0.046728515625, 0.053173828125, 0.02900390625
0.037060546875, 0.043505859375, 0.046728515625, 0.027392578125
0.07412109375, 0.075732421875, 0.078955078125, 0.0378662109375
0.06767578125, 0.0765380859375, 0.090234375, 0.03544921875
0.062841796875, 0.07412109375, 0.0862060546875, 0.037060546875
0.06767578125, 0.0765380859375, 0.091845703125, 0.0322265625
0.04833984375, 0.056396484375, 0.066064453125, 0.0330322265625
0.0451171875, 0.053173828125, 0.059619140625, 0.0322265625
0.04833984375, 0.053173828125, 0.059619140625, 0.0314208984375
0.02900390625, 0.033837890625, 0.040283203125, 0.0193359375
0.0, 0.0, 0.0, 0.011279296875
0.0, 0.0, 0.0, 0.008056640625
0.0, 0.0, 0.0, 0.0
0.0120849609375, 0.0, 0.0, 0.0
0.0, 0.0, 0.0, 0.0201416015625
0.011279296875, 0.011279296875, 0.012890625, 0.024169921875
0.02255859375, 0.020947265625, 0.020947265625, 0.027392578125
0.030615234375, 0.030615234375, 0.033837890625, 0.027392578125
0.037060546875, 0.037060546875, 0.040283203125, 0.033837890625
0.049951171875, 0.056396484375, 0.064453125, 0.037060546875
0.062841796875, 0.075732421875, 0.085400390625, 0.040283203125
0.075732421875, 0.088623046875, 0.105541992187, 0.0475341796875
0.10634765625, 0.10634765625, 0.104736328125, 0.0539794921875
0.08056640625, 0.095068359375, 0.111181640625, 0.040283203125
0.0708984375, 0.0829833984375, 0.098291015625, 0.033837890625
0.04833984375, 0.056396484375, 0.066064453125, 0.02900390625
0.02255859375, 0.0249755859375, 0.027392578125, 0.011279296875
0.0, 0.0, 0.0, 0.0120849609375
0.0, 0.0, 0.0, 0.0
0.0120849609375, 0.0, 0.0, 0.0
0.0, 0.0, 0.0, 0.0185302734375
0.011279296875, 0.0056396484375, 0.0064453125, 0.02578125
0.02255859375, 0.0185302734375, 0.020947265625, 0.0
0.027392578125, 0.030615234375, 0.027392578125, 0.03544921875
0.0322265625, 0.0314208984375, 0.0346435546875, 0.027392578125
0.04189453125, 0.043505859375, 0.046728515625, 0.0346435546875
0.05478515625, 0.0572021484375, 0.066064453125, 0.038671875
0.0708984375, 0.0765380859375, 0.090234375, 0.040283203125
0.103125, 0.09990234375, 0.124072265625, 0.04833984375
0.095068359375, 0.108764648438, 0.104736328125, 0.0410888671875
0.075732421875, 0.0894287109375, 0.104736328125, 0.038671875
0.06123046875, 0.0700927734375, 0.085400390625, 0.033837890625
0.04189453125, 0.049951171875, 0.0580078125, 0.020947265625
0.0, 0.0, 0.0, 0.008056640625
0.0, 0.0, 0.0, 0.0
0.011279296875, 0.0, 0.0, 0.0
0.0, 0.0, 0.0, 0.0
0.0120849609375, 0.0, 0.0, 0.0
0.00966796875, 0.0056396484375, 0.008056640625, 0.0
0.024169921875, 0.0185302734375, 0.014501953125, 0.0185302734375
0.0193359375, 0.017724609375, 0.014501953125, 0.020947265625
0.024169921875, 0.0249755859375, 0.027392578125, 0.0314208984375
0.037060546875, 0.037060546875, 0.0410888671875, 0.033837890625
0.06123046875, 0.0636474609375, 0.072509765625, 0.037060546875
0.07412109375, 0.082177734375, 0.0966796875, 0.0451171875
0.1095703125, 0.10634765625, 0.104736328125, 0.0588134765625
0.103125, 0.0958740234375, 0.111987304688, 0.0475341796875
0.0837890625, 0.101513671875, 0.117626953125, 0.038671875
0.05478515625, 0.0636474609375, 0.078955078125, 0.0314208984375
0.011279296875, 0.017724609375, 0.020947265625, 0.00966796875
0.0, 0.0, 0.0, 0.004833984375
0.0, 0.0, 0.0, 0.0
0.011279296875, 0.0, 0.0, 0.0
0.0, 0.0, 0.0, 0.0
0.020947265625, 0.001611328125, 0.0, 0.0
0.01611328125, 0.0120849609375, 0.014501953125, 0.0
0.027392578125, 0.024169921875, 0.020947265625, 0.0249755859375
0.030615234375, 0.0314208984375, 0.033837890625, 0.02578125
0.030615234375, 0.03544921875, 0.040283203125, 0.0314208984375
0.049951171875, 0.056396484375, 0.0604248046875, 0.033837890625
0.06123046875, 0.069287109375, 0.078955078125, 0.038671875
0.075732421875, 0.088623046875, 0.104736328125, 0.0507568359375
0.107958984375, 0.10634765625, 0.104736328125, 0.049951171875
0.08701171875, 0.103125, 0.090234375, 0.0410888671875
0.069287109375, 0.0829833984375, 0.098291015625, 0.0378662109375
0.043505859375, 0.056396484375, 0.066064453125, 0.0281982421875
0.00322265625, 0.004833984375, 0.0024169921875, 0.0120849609375
0.0, 0.0, 0.0, 0.0
0.011279296875, 0.0, 0.0, 0.0
0.0, 0.0, 0.0, 0.0
0.0120849609375, 0.0, 0.0, 0.0
0.011279296875, 0.008056640625, 0.0064453125, 0.0
0.024169921875, 0.017724609375, 0.0120849609375, 0.017724609375
0.024169921875, 0.0249755859375, 0.02578125, 0.02578125
0.030615234375, 0.0314208984375, 0.033837890625, 0.027392578125
0.037060546875, 0.0378662109375, 0.0410888671875, 0.0322265625
0.05478515625, 0.0572021484375, 0.066064453125, 0.0394775390625
0.06767578125, 0.0765380859375, 0.090234375, 0.04189453125
0.088623046875, 0.103125, 0.098291015625, 0.0515625
0.11279296875, 0.111181640625, 0.1095703125, 0.046728515625
0.075732421875, 0.095068359375, 0.111181640625, 0.037060546875
0.06123046875, 0.0700927734375, 0.0837890625, 0.0322265625
0.037060546875, 0.04833984375, 0.0539794921875, 0.0249755859375
0.0064453125, 0.011279296875, 0.012890625, 0.0120849609375
0.0, 0.0, 0.0, 0.0064453125
0.0, 0.0, 0.0, 0.0120849609375
0.0, 0.0, 0.0, 0.0
0.011279296875, 0.0, 0.0, 0.0
0.00322265625, 0.0, 0.0, 0.0
0.024169921875, 0.011279296875, 0.004833984375, 0.0104736328125
0.024169921875, 0.020947265625, 0.020947265625, 0.024169921875
0.024169921875, 0.030615234375, 0.0322265625, 0.027392578125
0.043505859375, 0.04833984375, 0.053173828125, 0.03544921875
0.06767578125, 0.07412109375, 0.085400390625, 0.040283203125
0.075732421875, 0.0894287109375, 0.105541992187, 0.049951171875
0.11279296875, 0.108764648438, 0.1095703125, 0.056396484375
0.103125, 0.095068359375, 0.111181640625, 0.046728515625
0.0837890625, 0.101513671875, 0.111987304688, 0.038671875
0.06123046875, 0.072509765625, 0.0837890625, 0.027392578125
0.030615234375, 0.037060546875, 0.040283203125, 0.014501953125
0.0, 0.0, 0.0, 0.001611328125
0.0, 0.0, 0.0, 0.0
0.008056640625, 0.0, 0.0, 0.0
0.0, 0.0, 0.0, 0.0136962890625
0.0, 0.0, 0.0, 0.0193359375
0.00966796875, 0.0056396484375, 0.0064453125, 0.0
0.024169921875, 0.017724609375, 0.0120849609375, 0.0120849609375
0.02255859375, 0.024169921875, 0.027392578125, 0.027392578125
0.037060546875, 0.0378662109375, 0.040283203125, 0.0322265625
0.056396484375, 0.062841796875, 0.0668701171875, 0.040283203125
0.07412109375, 0.0829833984375, 0.098291015625, 0.040283203125
0.09345703125, 0.107958984375, 0.0990966796875, 0.053173828125
0.120849609375, 0.115209960937, 0.116015625, 0.0588134765625
0.09990234375, 0.11279296875, 0.0990966796875, 0.0475341796875
0.0708984375, 0.08701171875, 0.0990966796875, 0.0378662109375
0.04833984375, 0.056396484375, 0.066064453125, 0.02578125
0.0, 0.0, 0.0, 0.0064453125
0.0, 0.0, 0.0, 0.0
0.008056640625, 0.0, 0.0, 0.0
0.0, 0.0, 0.0, 0.0
0.011279296875, 0.0, 0.0, 0.0
0.00322265625, 0.0, 0.0, 0.0
0.020947265625, 0.004833984375, 0.0, 0.001611328125
0.00966796875, 0.0056396484375, 0.008056640625, 0.02255859375
0.024169921875, 0.0249755859375, 0.027392578125, 0.0281982421875
0.0322265625, 0.0314208984375, 0.033837890625, 0.02900390625
0.05478515625, 0.0572021484375, 0.064453125, 0.037060546875
0.07412109375, 0.082177734375, 0.0966796875, 0.0443115234375
0.08701171875, 0.101513671875, 0.117626953125, 0.049951171875
0.12568359375, 0.121655273437, 0.1224609375, 0.049951171875
0.103125, 0.101513671875, 0.118432617188, 0.0451171875
0.07412109375, 0.088623046875, 0.103125, 0.0378662109375
0.056396484375, 0.0636474609375, 0.07734375, 0.027392578125
0.00322265625, 0.00322265625, 0.001611328125, 0.00966796875
0.0, 0.0, 0.0, 0.001611328125
0.0, 0.0, 0.0, 0.0
0.008056640625, 0.0, 0.0, 0.0
0.0, 0.0, 0.0, 0.0120849609375
0.0, 0.0, 0.0, 0.0
0.024169921875, 0.004833984375, 0.0, 0.0024169921875
0.01611328125, 0.0120849609375, 0.014501953125, 0.0
0.027392578125, 0.0249755859375, 0.0217529296875, 0.027392578125
0.03544921875, 0.03544921875, 0.033837890625, 0.0281982421875
0.04833984375, 0.053173828125, 0.059619140625, 0.0378662109375
0.069287109375, 0.0765380859375, 0.090234375, 0.040283203125
0.09990234375, 0.11279296875, 0.1095703125, 0.0539794921875
0.13212890625, 0.12568359375, 0.124072265625, 0.0555908203125
0.11279296875, 0.107958984375, 0.0990966796875, 0.046728515625
0.075732421875, 0.095068359375, 0.1095703125, 0.03544921875
0.037060546875, 0.049951171875, 0.059619140625, 0.020947265625
0.00322265625, 0.0056396484375, 0.008056640625, 0.0088623046875
0.0, 0.0, 0.0, 0.001611328125
0.0, 0.0, 0.0, 0.0
0.008056640625, 0.0, 0.0, 0.0
0.0, 0.0, 0.0, 0.0
0.020947265625, 0.0, 0.0, 0.0
0.00322265625, 0.0, 0.0, 0.0
0.033837890625, 0.01611328125, 0.0088623046875, 0.0185302734375
0.062841796875, 0.062841796875, 0.0708984375, 0.03544921875
0.075732421875, 0.082177734375, 0.091845703125, 0.0443115234375
0.09345703125, 0.103125, 0.091845703125, 0.046728515625
0.107958984375, 0.124072265625, 0.111181640625, 0.040283203125
0.1095703125, 0.127294921875, 0.117626953125, 0.0451171875
0.09345703125, 0.114404296875, 0.104736328125, 0.0322265625
0.037060546875, 0.043505859375, 0.059619140625, 0.0314208984375
0.056396484375, 0.04833984375, 0.053173828125, 0.0281982421875
0.1611328125, 0.115209960937, 0.091845703125, 0.033837890625
0.088623046875, 0.082177734375, 0.090234375, 0.027392578125
0.03544921875, 0.0378662109375, 0.0475341796875, 0.020947265625
0.0, 0.0, 0.0, 0.012890625
0.0, 0.0, 0.0, 0.0193359375
0.0, 0.0, 0.001611328125, 0.0
0.027392578125, 0.101513671875, 0.07734375, 0.0700927734375
0.339990234375, 0.243310546875, 0.175634765625, 0.0580078125
0.61552734375, 0.456811523438, 0.322265625, 0.072509765625
1.05541992188, 0.694482421875, 0.504345703125, 0.091845703125
1.39702148438, 1.00466308594, 0.678369140625, 0.1095703125
2.0431640625, 1.50739746094, 1.00063476562, 0.136962890625
2.14467773437, 1.75795898437, 1.25522460937, 0.13857421875
1.70478515625, 1.50014648437, 1.17546386719, 0.114404296875
0.849169921875, 0.80244140625, 0.665478515625, 0.0708984375
0.0, 0.0765380859375, 0.1353515625, 0.0193359375
0.0, 0.0, 0.0, 0.012890625
0.0, 0.0, 0.0, 0.0
0.020947265625, 0.0, 0.0, 0.004833984375
0.09990234375, 0.0829833984375, 0.07734375, 0.0
0.037060546875, 0.22880859375, 0.153076171875, 0.126489257813
0.501123046875, 0.391552734375, 0.294873046875, 0.06767578125
0.78310546875, 0.572021484375, 0.420556640625, 0.07734375
1.17626953125, 0.824194335937, 0.595385742188, 0.0974853515625
1.48403320312, 1.05541992188, 0.69609375, 0.111987304688
1.91586914062, 1.54204101563, 1.0892578125, 0.121655273437
1.55009765625, 1.35190429687, 1.02077636719, 0.104736328125
1.10698242188, 0.997412109375, 0.772631835938, 0.082177734375
0.31259765625, 0.334350585938, 0.304541015625, 0.043505859375
0.0, 0.0, 0.02578125, 0.014501953125
0.0, 0.0, 0.001611328125, 0.020947265625
0.011279296875, 0.008056640625, 0.012890625, 0.0
0.033837890625, 0.146630859375, 0.091845703125, 0.0878173828125
0.31259765625, 0.231225585938, 0.175634765625, 0.049951171875
0.604248046875, 0.462451171875, 0.330322265625, 0.0708984375
0.89912109375, 0.630029296875, 0.451171875, 0.078955078125
1.224609375, 0.887841796875, 0.613916015625, 0.0966796875
1.86591796875, 1.35029296875, 0.878173828125, 0.117626953125
1.9271484375, 1.58071289062, 1.12390136719, 0.116015625
1.53881835938, 1.35512695312, 1.02722167969, 0.105541992187
0.736376953125, 0.695288085937, 0.562353515625, 0.066064453125
0.04189453125, 0.107958984375, 0.124072265625, 0.02900390625
0.0, 0.0056396484375, 0.02578125, 0.0233642578125
0.037060546875, 0.0314208984375, 0.033837890625, 0.0378662109375
0.103125, 0.0829833984375, 0.090234375, 0.03544921875
0.33193359375, 0.231225585938, 0.167578125, 0.053173828125
0.456005859375, 0.36416015625, 0.2771484375, 0.062841796875
0.887841796875, 0.620361328125, 0.4447265625, 0.078955078125
1.13759765625, 0.784716796875, 0.565576171875, 0.088623046875
1.61455078125, 1.16337890625, 0.755712890625, 0.114404296875
1.95454101562, 1.55493164063, 1.06508789062, 0.117626953125
1.67094726563, 1.44938964844, 1.0892578125, 0.105541992187
1.08764648438, 0.972436523438, 0.752490234375, 0.082177734375
0.269091796875, 0.309375, 0.2771484375, 0.038671875
0.0, 0.0, 0.014501953125, 0.0185302734375
0.00966796875, 0.0120849609375, 0.0193359375, 0.0
0.030615234375, 0.0507568359375, 0.040283203125, 0.046728515625
0.20947265625, 0.140991210938, 0.116015625, 0.040283203125
0.3158203125, 0.24814453125, 0.1869140625, 0.0515625
0.63486328125, 0.47373046875, 0.349658203125, 0.0708984375
1.11181640625, 0.771826171875, 0.555908203125, 0.09345703125
1.29228515625, 0.94423828125, 0.634057617188, 0.0990966796875
1.90458984375, 1.41635742187, 0.942626953125, 0.123266601562
1.87397460937, 1.54526367187, 1.1279296875, 0.115209960937
