## File generated by myo_cap software
## Available from github.com/ddantas/myo_cap
## Timestamp: 2018-05-23_20-57-32
##
## EMG capture settings##
# sampleRate: 2000.0
# channelsPerBoard: 4.0
# nBoards: 1.0
# bitsPerSample: 12.0
##
## Data
## t; ch0; ch1; ch2; ch3
4; 0; 0; 0
20; 7; 2; 0
52; 58; 69; 91
93; 125; 133; 134
143; 176; 183; 185
162; 228; 256; 245
156; 237; 260; 254
130; 230; 259; 248
117; 193; 228; 255
91; 148; 149; 141
40; 85; 119; 117
3; 19; 41; 61
0; 0; 0; 0
0; 0; 0; 0
0; 0; 0; 0
0; 0; 0; 0
7; 0; 0; 0
32; 27; 26; 25
72; 92; 123; 115
127; 167; 159; 146
160; 222; 242; 246
161; 245; 254; 241
141; 227; 257; 244
135; 210; 246; 255
90; 157; 160; 149
56; 114; 133; 131
12; 42; 66; 97
0; 0; 1; 7
0; 0; 0; 0
0; 0; 0; 0
0; 0; 0; 0
1; 0; 0; 0
15; 7; 0; 0
50; 57; 65; 87
93; 130; 125; 137
133; 171; 165; 164
162; 225; 250; 248
155; 233; 248; 254
134; 229; 255; 248
118; 210; 243; 242
85; 153; 159; 154
41; 87; 132; 130
4; 25; 52; 82
0; 0; 1; 8
0; 0; 0; 0
0; 0; 0; 0
0; 0; 0; 0
8; 0; 0; 0
30; 24; 19; 18
73; 96; 122; 116
127; 153; 142; 137
170; 218; 242; 239
168; 246; 251; 245
149; 236; 253; 256
133; 217; 246; 254
93; 162; 165; 158
56; 114; 127; 128
9; 44; 68; 102
0; 0; 5; 8
0; 0; 0; 0
0; 0; 0; 0
0; 0; 0; 0
1; 0; 0; 0
21; 12; 2; 0
54; 65; 80; 107
107; 133; 137; 133
150; 189; 193; 203
167; 235; 255; 253
150; 232; 256; 258
132; 233; 261; 252
115; 190; 220; 246
84; 133; 159; 152
33; 64; 103; 134
3; 10; 33; 52
0; 0; 0; 0
0; 0; 0; 0
0; 0; 0; 0
4; 0; 0; 0
17; 5; 0; 0
50; 55; 61; 78
87; 122; 128; 131
131; 190; 195; 203
159; 237; 256; 249
150; 238; 262; 241
131; 236; 249; 250
124; 202; 226; 254
84; 148; 147; 137
38; 82; 114; 129
3; 22; 42; 61
0; 0; 0; 1
0; 0; 0; 0
0; 0; 0; 0
0; 0; 0; 0
6; 0; 0; 0
26; 17; 11; 8
62; 75; 96; 127
114; 126; 132; 142
160; 195; 208; 228
163; 231; 259; 251
148; 224; 259; 247
133; 209; 246; 247
101; 171; 177; 178
73; 131; 131; 127
21; 57; 86; 115
0; 6; 21; 35
0; 0; 0; 0
0; 0; 0; 0
0; 0; 0; 0
2; 0; 0; 0
16; 8; 0; 0
47; 50; 55; 70
94; 130; 132; 131
138; 178; 186; 188
159; 228; 253; 249
147; 225; 254; 257
131; 211; 243; 246
117; 195; 221; 246
84; 143; 138; 134
42; 80; 121; 132
1; 13; 37; 56
0; 0; 0; 1
0; 0; 0; 0
0; 0; 0; 0
1; 0; 0; 0
2; 0; 0; 0
35; 31; 31; 39
69; 95; 124; 125
130; 152; 140; 128
173; 224; 248; 243
172; 246; 260; 258
142; 217; 252; 255
136; 203; 244; 242
93; 152; 161; 152
58; 110; 135; 128
12; 46; 76; 107
0; 0; 5; 11
0; 0; 0; 0
0; 0; 0; 0
0; 0; 0; 0
1; 0; 0; 0
28; 23; 21; 21
64; 86; 112; 124
123; 159; 150; 135
166; 221; 248; 239
169; 247; 260; 244
151; 231; 259; 254
133; 219; 254; 241
104; 178; 191; 201
60; 119; 136; 125
17; 50; 76; 110
0; 1; 12; 26
0; 0; 0; 0
0; 0; 0; 0
0; 0; 0; 0
1; 0; 0; 0
25; 22; 21; 21
61; 80; 104; 128
123; 134; 155; 138
158; 199; 216; 241
169; 245; 251; 262
146; 232; 255; 256
132; 216; 247; 254
96; 171; 178; 170
63; 125; 141; 128
17; 52; 78; 120
0; 0; 5; 16
0; 0; 0; 0
0; 0; 0; 0
0; 0; 0; 0
0; 0; 0; 0
21; 10; 3; 0
55; 66; 78; 109
106; 129; 133; 130
153; 186; 200; 212
176; 245; 251; 253
155; 241; 255; 257
132; 239; 255; 255
113; 190; 215; 234
77; 129; 130; 140
30; 68; 97; 131
0; 11; 23; 46
0; 0; 0; 0
0; 0; 0; 0
0; 0; 0; 0
0; 0; 0; 0
10; 0; 0; 0
43; 44; 52; 67
87; 119; 138; 128
128; 178; 176; 175
165; 240; 251; 253
155; 244; 243; 260
141; 229; 258; 254
126; 202; 237; 235
86; 145; 142; 130
46; 89; 128; 132
3; 23; 46; 71
0; 0; 0; 4
0; 0; 0; 0
0; 0; 0; 0
0; 0; 0; 0
1; 0; 0; 0
22; 16; 12; 8
61; 76; 97; 134
122; 137; 150; 135
169; 210; 233; 247
181; 249; 258; 246
155; 239; 255; 258
137; 223; 254; 241
106; 186; 209; 220
67; 126; 133; 131
18; 53; 80; 114
0; 1; 11; 26
0; 0; 0; 0
0; 0; 0; 0
0; 0; 0; 0
1; 0; 0; 0
20; 5; 1; 0
45; 49; 53; 67
91; 128; 127; 134
140; 182; 191; 198
165; 240; 250; 258
159; 249; 255; 244
136; 220; 246; 256
124; 194; 220; 246
77; 131; 151; 135
35; 69; 113; 124
0; 3; 19; 31
0; 0; 0; 0
0; 0; 0; 0
0; 0; 0; 0
0; 0; 0; 0
3; 0; 0; 0
24; 16; 11; 5
64; 84; 107; 118
128; 139; 136; 135
164; 209; 228; 246
176; 253; 256; 247
156; 235; 253; 258
133; 234; 255; 254
92; 179; 181; 187
55; 121; 133; 134
9; 38; 55; 84
0; 0; 4; 8
0; 0; 0; 0
0; 0; 0; 0
0; 0; 0; 0
0; 0; 0; 0
3; 0; 0; 0
31; 31; 32; 35
69; 94; 123; 119
129; 171; 167; 156
170; 241; 255; 256
171; 254; 255; 246
149; 237; 253; 257
133; 208; 243; 245
93; 163; 171; 172
54; 111; 133; 139
7; 38; 59; 88
0; 0; 2; 6
0; 0; 0; 0
0; 0; 0; 0
0; 0; 0; 0
0; 0; 0; 0
12; 1; 0; 0
44; 45; 51; 59
86; 121; 130; 126
136; 177; 181; 188
172; 242; 250; 247
158; 246; 254; 252
140; 229; 260; 248
125; 198; 231; 249
85; 142; 142; 132
34; 72; 100; 134
0; 10; 28; 44
0; 0; 0; 0
0; 0; 0; 0
0; 0; 0; 0
0; 0; 0; 0
4; 0; 0; 0
30; 25; 23; 26
68; 87; 118; 123
130; 154; 151; 138
178; 233; 249; 227
172; 251; 259; 250
156; 242; 260; 242
135; 224; 252; 245
98; 171; 179; 178
64; 122; 138; 131
11; 36; 57; 81
0; 0; 1; 4
0; 0; 0; 0
0; 0; 0; 0
0; 0; 0; 0
0; 0; 0; 0
11; 1; 0; 0
38; 43; 44; 51
88; 118; 135; 128
137; 173; 177; 182
170; 239; 249; 253
156; 242; 255; 257
139; 227; 253; 248
125; 195; 222; 245
86; 142; 138; 138
38; 76; 115; 131
0; 7; 24; 38
0; 0; 0; 0
0; 0; 0; 0
0; 0; 0; 0
0; 0; 0; 0
4; 0; 0; 0
23; 15; 9; 2
57; 69; 86; 113
119; 129; 138; 131
166; 205; 219; 240
178; 250; 256; 251
156; 237; 250; 252
133; 235; 257; 245
107; 201; 227; 245
72; 134; 134; 147
20; 53; 79; 117
0; 2; 15; 30
0; 0; 0; 0
0; 0; 0; 0
0; 0; 0; 0
1; 0; 0; 0
15; 4; 0; 0
43; 46; 50; 57
86; 120; 129; 124
135; 173; 177; 183
168; 235; 255; 252
155; 239; 261; 256
138; 224; 252; 243
124; 195; 226; 247
83; 134; 164; 150
34; 69; 110; 124
1; 8; 32; 51
0; 0; 0; 0
0; 0; 0; 0
0; 0; 0; 0
0; 0; 0; 0
4; 0; 0; 0
27; 18; 20; 19
65; 81; 107; 112
127; 142; 136; 133
168; 213; 232; 252
170; 245; 257; 242
154; 239; 258; 260
132; 233; 260; 250
92; 178; 194; 195
62; 130; 135; 129
18; 50; 82; 119
0; 0; 12; 26
0; 0; 0; 0
0; 0; 0; 0
0; 0; 0; 0
0; 0; 0; 0
19; 7; 2; 0
53; 60; 70; 93
94; 129; 138; 133
144; 182; 188; 200
172; 246; 247; 257
159; 248; 250; 255
134; 220; 250; 259
120; 190; 210; 232
90; 140; 137; 138
37; 69; 106; 135
0; 12; 29; 48
0; 0; 0; 0
0; 0; 0; 0
0; 0; 0; 0
1; 0; 0; 0
8; 0; 0; 0
36; 32; 34; 40
78; 106; 132; 128
133; 165; 166; 158
172; 239; 258; 240
167; 250; 263; 259
148; 232; 258; 254
127; 218; 245; 250
90; 163; 165; 159
50; 108; 136; 132
2; 27; 50; 72
0; 0; 1; 3
0; 0; 0; 0
0; 0; 0; 0
0; 0; 0; 0
0; 0; 0; 0
21; 13; 6; 2
52; 61; 71; 94
103; 132; 132; 136
153; 201; 212; 232
178; 248; 257; 261
160; 245; 250; 248
142; 228; 256; 241
115; 186; 207; 219
76; 131; 133; 127
27; 61; 93; 131
0; 3; 17; 28
0; 0; 0; 0
0; 0; 0; 0
0; 0; 0; 0
0; 0; 0; 0
7; 0; 0; 0
35; 32; 34; 39
74; 101; 125; 127
132; 156; 158; 145
173; 233; 252; 232
171; 248; 261; 248
144; 225; 252; 248
134; 205; 241; 242
90; 153; 160; 147
50; 101; 127; 122
5; 30; 51; 73
0; 0; 1; 3
0; 0; 0; 0
0; 0; 0; 0
0; 0; 0; 0
0; 0; 0; 0
14; 4; 0; 0
50; 57; 66; 87
94; 124; 130; 131
137; 170; 171; 166
172; 236; 255; 247
155; 238; 261; 259
136; 220; 249; 249
119; 202; 233; 256
82; 143; 143; 134
36; 74; 111; 128
0; 12; 31; 52
0; 0; 0; 0
0; 0; 0; 0
0; 0; 0; 0
0; 0; 0; 0
2; 0; 0; 0
33; 32; 32; 37
69; 94; 124; 123
127; 172; 168; 161
172; 239; 255; 242
170; 252; 258; 250
151; 238; 254; 255
130; 211; 244; 242
87; 153; 159; 147
52; 107; 136; 130
3; 26; 49; 70
0; 0; 0; 1
0; 0; 0; 0
0; 0; 0; 0
0; 0; 0; 0
0; 0; 0; 0
18; 5; 1; 0
44; 45; 50; 62
90; 129; 132; 132
139; 180; 188; 194
168; 240; 252; 258
160; 245; 256; 253
136; 213; 251; 261
123; 181; 203; 229
84; 133; 155; 142
33; 64; 101; 129
0; 4; 22; 34
0; 0; 0; 0
0; 0; 0; 0
0; 0; 0; 0
0; 0; 0; 0
3; 0; 0; 0
24; 13; 8; 2
52; 66; 77; 107
118; 136; 131; 134
167; 210; 229; 246
182; 252; 261; 248
155; 240; 258; 255
139; 224; 254; 247
107; 194; 212; 237
72; 129; 136; 137
15; 47; 73; 110
0; 0; 2; 10
0; 0; 0; 0
0; 0; 0; 0
0; 0; 0; 0
0; 0; 0; 0
10; 1; 0; 0
38; 36; 40; 45
85; 118; 129; 128
131; 179; 177; 179
175; 247; 245; 254
168; 252; 251; 253
147; 232; 255; 250
125; 202; 226; 251
92; 154; 153; 142
38; 83; 116; 134
1; 18; 35; 53
0; 0; 0; 0
0; 0; 0; 0
0; 0; 0; 0
0; 0; 0; 0
2; 0; 0; 0
20; 11; 3; 0
57; 72; 91; 119
114; 131; 127; 135
164; 207; 222; 246
180; 252; 252; 256
160; 240; 259; 264
143; 230; 256; 258
111; 198; 213; 239
74; 133; 135; 138
24; 60; 93; 130
0; 1; 7; 19
0; 0; 0; 0
0; 0; 0; 0
0; 0; 0; 0
0; 0; 0; 0
8; 0; 0; 0
40; 37; 41; 52
78; 109; 132; 127
131; 171; 172; 167
175; 243; 262; 254
170; 252; 253; 251
150; 241; 256; 259
125; 220; 245; 252
89; 163; 165; 163
42; 92; 125; 135
3; 23; 42; 63
0; 0; 0; 0
0; 0; 0; 0
0; 0; 0; 0
0; 0; 0; 0
0; 0; 0; 0
16; 6; 0; 0
51; 58; 69; 91
102; 133; 127; 133
157; 202; 212; 231
185; 254; 252; 252
167; 248; 254; 246
147; 234; 256; 249
121; 197; 221; 242
85; 136; 159; 139
35; 69; 113; 121
0; 6; 23; 34
0; 0; 0; 0
0; 0; 0; 0
0; 0; 0; 0
0; 0; 0; 0
1; 0; 0; 0
34; 29; 34; 40
73; 96; 130; 129
130; 157; 156; 147
169; 229; 255; 254
177; 254; 250; 249
153; 242; 260; 242
134; 219; 254; 238
96; 170; 175; 173
53; 116; 126; 137
2; 28; 44; 62
0; 0; 0; 0
0; 0; 0; 0
0; 0; 0; 0
0; 0; 0; 0
0; 0; 0; 0
11; 1; 0; 0
43; 44; 44; 52
90; 127; 126; 126
137; 176; 177; 179
175; 250; 250; 258
163; 247; 260; 255
137; 216; 250; 255
126; 190; 217; 247
85; 136; 133; 137
33; 65; 96; 126
1; 5; 21; 40
0; 0; 0; 0
0; 0; 0; 0
0; 0; 0; 0
0; 0; 0; 0
1; 0; 0; 0
22; 14; 11; 8
61; 75; 99; 132
118; 131; 140; 133
175; 216; 241; 236
187; 254; 259; 258
166; 244; 252; 248
147; 233; 255; 251
108; 192; 199; 210
68; 131; 142; 135
22; 53; 86; 121
0; 0; 12; 22
0; 0; 0; 0
0; 0; 0; 0
0; 0; 0; 0
0; 0; 0; 0
16; 6; 1; 0
46; 47; 54; 67
88; 124; 127; 128
145; 186; 195; 209
179; 254; 260; 245
168; 252; 255; 255
146; 230; 259; 254
131; 198; 231; 251
90; 140; 136; 133
38; 70; 103; 131
0; 8; 26; 42
0; 0; 0; 0
0; 0; 0; 0
0; 0; 0; 0
0; 0; 0; 0
1; 0; 0; 0
23; 14; 9; 2
56; 69; 85; 115
120; 135; 132; 137
176; 224; 242; 246
189; 253; 258; 256
166; 246; 252; 248
148; 234; 255; 245
110; 197; 214; 228
71; 130; 130; 132
19; 49; 77; 109
0; 0; 5; 17
0; 0; 0; 0
0; 0; 0; 0
0; 0; 0; 0
0; 0; 0; 0
12; 1; 0; 0
44; 47; 53; 67
89; 122; 136; 130
135; 171; 172; 167
176; 247; 245; 256
168; 252; 246; 255
148; 233; 255; 248
129; 206; 245; 248
91; 155; 161; 158
42; 83; 127; 124
0; 13; 29; 43
0; 0; 0; 0
0; 0; 0; 0
0; 0; 0; 0
0; 0; 0; 0
3; 0; 0; 0
21; 11; 5; 0
54; 68; 82; 108
113; 130; 133; 139
169; 212; 231; 253
186; 258; 258; 254
162; 249; 257; 242
145; 236; 253; 253
104; 195; 206; 223
72; 134; 138; 135
16; 47; 75; 114
0; 0; 2; 11
0; 0; 0; 0
0; 0; 0; 0
0; 0; 0; 0
0; 0; 0; 0
7; 0; 0; 0
38; 38; 42; 51
78; 108; 130; 129
128; 184; 186; 187
167; 247; 251; 256
163; 253; 261; 250
145; 234; 249; 252
126; 204; 226; 246
95; 158; 163; 152
50; 98; 131; 132
5; 28; 48; 68
0; 0; 0; 2
0; 0; 0; 0
0; 0; 0; 0
0; 0; 0; 0
0; 0; 0; 0
24; 16; 8; 4
54; 63; 77; 100
113; 134; 137; 134
163; 207; 221; 249
179; 251; 255; 254
164; 249; 247; 258
140; 229; 254; 248
111; 198; 221; 247
76; 127; 145; 137
28; 57; 92; 135
0; 0; 9; 19
0; 0; 0; 0
0; 0; 0; 0
0; 0; 0; 0
0; 0; 0; 0
7; 0; 0; 0
32; 30; 27; 27
77; 106; 131; 131
137; 172; 180; 187
181; 247; 248; 254
173; 254; 259; 255
150; 234; 260; 250
130; 205; 245; 242
87; 149; 152; 144
50; 98; 128; 131
4; 26; 44; 66
0; 0; 0; 0
0; 0; 0; 0
0; 0; 0; 0
0; 0; 0; 0
0; 0; 0; 0
14; 1; 0; 0
50; 52; 64; 81
101; 129; 133; 129
156; 197; 212; 232
185; 252; 256; 264
168; 250; 251; 255
147; 229; 254; 247
124; 186; 212; 237
85; 134; 158; 148
31; 59; 96; 127
0; 2; 12; 26
0; 0; 0; 0
0; 0; 0; 0
0; 0; 0; 0
0; 0; 0; 0
4; 0; 0; 0
29; 24; 22; 26
68; 87; 115; 123
129; 155; 151; 138
182; 241; 260; 245
187; 254; 261; 247
160; 240; 257; 260
139; 221; 248; 249
95; 172; 182; 180
59; 119; 134; 134
10; 38; 60; 91
0; 0; 0; 8
0; 0; 0; 0
0; 0; 0; 0
0; 0; 0; 0
1; 0; 0; 0
10; 0; 0; 0
43; 45; 54; 70
85; 118; 136; 128
139; 173; 181; 185
178; 249; 251; 248
168; 253; 259; 256
150; 235; 248; 249
125; 201; 221; 246
94; 152; 153; 140
43; 87; 126; 123
1; 16; 37; 53
0; 0; 0; 0
0; 0; 0; 0
0; 0; 0; 0
0; 0; 0; 0
4; 0; 0; 0
28; 22; 22; 24
72; 93; 121; 121
126; 164; 159; 153
176; 243; 243; 241
181; 254; 256; 250
158; 240; 256; 255
138; 221; 247; 254
95; 174; 181; 180
53; 117; 129; 130
8; 42; 64; 89
0; 0; 4; 8
0; 0; 0; 0
0; 0; 0; 0
0; 0; 0; 0
0; 0; 0; 0
5; 0; 0; 0
39; 34; 36; 41
77; 108; 125; 136
132; 176; 176; 179
183; 253; 249; 254
175; 253; 253; 251
158; 245; 246; 259
135; 216; 245; 255
96; 164; 165; 163
50; 106; 132; 125
3; 29; 49; 74
0; 0; 0; 0
0; 0; 0; 0
0; 0; 0; 0
0; 0; 0; 0
1; 0; 0; 0
20; 7; 1; 0
56; 65; 74; 99
104; 133; 132; 136
160; 203; 216; 240
182; 250; 257; 250
170; 254; 255; 252
148; 233; 255; 251
120; 207; 230; 247
75; 130; 156; 139
28; 59; 101; 128
0; 0; 15; 26
0; 0; 0; 0
0; 0; 0; 0
0; 0; 0; 0
0; 0; 0; 0
5; 0; 0; 0
38; 35; 35; 41
76; 104; 126; 134
132; 175; 175; 178
182; 251; 258; 258
178; 252; 255; 255
153; 238; 251; 256
131; 206; 238; 261
91; 158; 162; 162
48; 99; 136; 132
1; 19; 37; 57
0; 0; 0; 0
0; 0; 0; 0
0; 0; 0; 0
0; 0; 0; 0
0; 0; 0; 0
14; 3; 0; 0
50; 54; 64; 85
95; 126; 135; 131
141; 178; 181; 184
177; 248; 249; 255
168; 250; 257; 248
146; 233; 255; 252
129; 201; 226; 254
88; 146; 141; 132
39; 78; 114; 129
0; 10; 32; 50
0; 0; 0; 0
0; 0; 0; 0
0; 0; 0; 0
0; 0; 0; 0
5; 0; 0; 0
30; 26; 23; 24
77; 100; 131; 132
133; 160; 158; 149
174; 238; 259; 243
182; 252; 255; 245
158; 236; 253; 258
134; 217; 246; 255
94; 160; 162; 151
56; 110; 134; 130
6; 35; 60; 88
0; 0; 2; 8
0; 0; 0; 0
0; 0; 0; 0
0; 0; 0; 0
0; 0; 0; 0
13; 1; 0; 0
46; 48; 51; 63
98; 129; 131; 130
149; 196; 212; 231
185; 258; 252; 249
173; 253; 254; 248
144; 227; 253; 245
130; 198; 230; 247
85; 137; 132; 144
35; 72; 105; 131
0; 2; 13; 21
0; 0; 0; 0
0; 0; 0; 0
0; 0; 0; 0
0; 0; 0; 0
2; 0; 0; 0
22; 13; 8; 5
53; 69; 83; 115
119; 133; 144; 132
177; 218; 246; 242
189; 251; 257; 252
162; 240; 257; 258
148; 233; 256; 253
112; 175; 185; 191
72; 127; 130; 129
17; 47; 70; 94
0; 0; 2; 5
0; 0; 0; 0
0; 0; 0; 0
0; 0; 0; 0
0; 0; 0; 0
6; 0; 0; 0
36; 33; 33; 43
77; 108; 128; 131
135; 171; 167; 166
181; 246; 260; 248
181; 257; 257; 254
159; 245; 253; 242
132; 213; 247; 242
87; 158; 163; 151
46; 100; 137; 130
2; 21; 43; 62
0; 0; 0; 0
0; 0; 0; 0
0; 0; 0; 0
0; 0; 0; 0
0; 0; 0; 0
17; 5; 0; 0
51; 59; 70; 92
102; 131; 132; 139
158; 203; 224; 246
185; 250; 257; 253
162; 241; 256; 258
144; 232; 259; 248
124; 202; 230; 247
84; 134; 161; 148
29; 60; 98; 126
0; 7; 21; 33
0; 0; 0; 0
0; 0; 0; 0
0; 0; 0; 0
0; 0; 0; 0
2; 0; 0; 0
28; 25; 22; 25
66; 88; 114; 127
126; 152; 145; 131
181; 239; 254; 236
181; 254; 259; 258
164; 245; 252; 253
137; 220; 255; 238
93; 171; 179; 179
57; 118; 134; 127
7; 42; 65; 97
0; 0; 2; 4
0; 0; 0; 0
0; 0; 0; 0
0; 0; 0; 0
0; 0; 0; 0
6; 0; 0; 0
38; 39; 42; 53
76; 110; 131; 129
131; 192; 198; 211
173; 249; 259; 257
163; 248; 256; 263
148; 231; 258; 255
125; 199; 220; 245
92; 152; 150; 134
45; 89; 128; 125
1; 20; 41; 60
0; 0; 0; 0
0; 0; 0; 0
0; 0; 0; 0
0; 0; 0; 0
0; 0; 0; 0
15; 7; 0; 0
52; 61; 73; 95
98; 130; 122; 133
151; 195; 201; 221
182; 251; 255; 259
162; 247; 252; 262
144; 234; 255; 253
119; 207; 237; 250
81; 143; 144; 134
26; 62; 92; 124
0; 2; 13; 25
0; 0; 0; 0
0; 0; 0; 0
0; 0; 0; 0
0; 0; 0; 0
4; 0; 0; 0
29; 27; 26; 30
68; 88; 111; 126
130; 156; 145; 135
176; 232; 253; 257
183; 250; 258; 260
157; 233; 255; 255
132; 232; 257; 246
92; 177; 191; 190
56; 123; 137; 136
7; 44; 68; 101
0; 0; 4; 9
0; 0; 0; 0
0; 0; 0; 0
0; 0; 0; 0
0; 0; 0; 0
17; 5; 0; 0
42; 45; 50; 63
92; 129; 131; 133
144; 186; 196; 206
179; 250; 258; 254
167; 251; 257; 252
148; 229; 262; 252
127; 200; 235; 256
90; 145; 148; 136
38; 71; 109; 115
0; 4; 17; 21
0; 0; 0; 0
0; 0; 0; 0
0; 0; 0; 0
0; 0; 0; 0
0; 0; 0; 0
20; 11; 5; 1
54; 67; 83; 107
120; 132; 136; 132
170; 215; 235; 254
190; 253; 254; 256
169; 249; 248; 253
148; 237; 250; 253
108; 198; 208; 223
68; 133; 132; 133
17; 46; 73; 102
0; 0; 5; 13
0; 0; 0; 0
0; 0; 0; 0
0; 0; 0; 0
0; 0; 0; 0
12; 0; 0; 0
43; 47; 55; 72
80; 116; 126; 126
133; 196; 202; 209
176; 254; 248; 256
168; 254; 255; 244
149; 234; 253; 254
127; 205; 229; 253
90; 149; 146; 135
46; 88; 126; 129
3; 18; 39; 58
0; 0; 0; 0
0; 0; 0; 0
0; 0; 0; 0
0; 0; 0; 0
1; 0; 0; 0
22; 13; 9; 1
53; 64; 77; 103
117; 136; 133; 138
174; 222; 248; 246
190; 256; 265; 253
165; 245; 253; 249
141; 228; 255; 247
113; 179; 201; 220
66; 125; 130; 135
16; 46; 70; 97
0; 0; 3; 10
0; 0; 0; 0
0; 0; 0; 0
0; 0; 0; 0
0; 0; 0; 0
6; 0; 0; 0
31; 27; 23; 25
78; 105; 127; 125
131; 172; 173; 172
180; 247; 255; 251
180; 256; 248; 260
153; 240; 251; 257
130; 206; 238; 256
86; 151; 152; 136
46; 92; 129; 127
2; 22; 46; 71
0; 0; 0; 2
0; 0; 0; 0
0; 0; 0; 0
0; 0; 0; 0
0; 0; 0; 0
21; 9; 3; 0
49; 52; 59; 71
96; 130; 132; 135
150; 187; 202; 216
181; 252; 261; 259
168; 250; 255; 264
144; 223; 251; 253
128; 189; 215; 235
90; 142; 134; 130
38; 74; 104; 136
0; 8; 22; 36
0; 0; 0; 0
0; 0; 0; 0
0; 0; 0; 0
0; 0; 0; 0
0; 0; 0; 0
30; 21; 21; 23
73; 93; 119; 115
126; 167; 159; 147
176; 246; 248; 241
186; 260; 254; 249
160; 245; 255; 242
137; 223; 249; 245
91; 166; 171; 169
59; 119; 132; 135
5; 34; 51; 71
0; 0; 1; 2
0; 0; 0; 0
0; 0; 0; 0
0; 0; 0; 0
0; 0; 0; 0
4; 0; 0; 0
34; 35; 35; 43
77; 103; 122; 131
130; 168; 162; 156
186; 252; 257; 252
181; 254; 253; 248
153; 229; 253; 245
133; 201; 234; 258
91; 154; 158; 154
43; 84; 124; 123
0; 12; 28; 39
0; 0; 0; 0
0; 0; 0; 0
0; 0; 0; 0
0; 0; 0; 0
0; 0; 0; 0
14; 3; 0; 0
50; 56; 66; 84
97; 130; 127; 134
144; 180; 178; 184
178; 248; 255; 250
169; 249; 252; 258
148; 229; 258; 245
128; 195; 225; 247
88; 139; 136; 148
36; 69; 104; 135
0; 1; 13; 18
0; 0; 0; 0
0; 0; 0; 0
0; 0; 0; 0
0; 0; 0; 0
2; 0; 0; 0
31; 24; 21; 22
71; 92; 116; 127
125; 165; 158; 139
172; 240; 259; 243
179; 254; 257; 249
159; 246; 251; 248
129; 232; 255; 243
85; 168; 171; 172
51; 115; 128; 131
2; 28; 44; 60
0; 0; 0; 0
0; 0; 0; 0
0; 0; 0; 0
0; 0; 0; 0
0; 0; 0; 0
9; 0; 0; 0
37; 34; 32; 35
77; 109; 128; 130
134; 194; 200; 210
177; 257; 250; 246
175; 259; 254; 246
155; 244; 250; 257
130; 227; 253; 252
85; 160; 162; 151
35; 88; 129; 123
0; 18; 42; 61
0; 0; 0; 0
0; 0; 0; 0
0; 0; 0; 0
0; 0; 0; 0
0; 0; 0; 0
23; 13; 10; 4
62; 76; 95; 129
123; 139; 132; 132
180; 229; 250; 253
189; 256; 263; 251
176; 248; 255; 253
149; 228; 257; 245
116; 182; 201; 217
74; 129; 148; 139
22; 50; 80; 118
0; 0; 3; 7
0; 0; 0; 0
0; 0; 0; 0
0; 0; 0; 0
0; 0; 0; 0
6; 0; 0; 0
37; 34; 35; 45
76; 103; 122; 131
130; 168; 161; 154
184; 249; 258; 242
180; 254; 255; 249
155; 241; 259; 256
134; 218; 250; 253
93; 163; 165; 161
42; 92; 124; 134
0; 16; 32; 42
0; 0; 0; 0
0; 0; 0; 0
0; 0; 0; 0
0; 0; 0; 0
0; 0; 0; 0
18; 8; 4; 0
46; 48; 54; 64
92; 122; 134; 126
149; 184; 196; 212
186; 252; 252; 258
169; 250; 253; 260
149; 232; 255; 256
125; 192; 211; 238
79; 131; 150; 134
31; 57; 92; 126
0; 1; 17; 31
0; 0; 0; 0
0; 0; 0; 0
0; 0; 0; 0
0; 0; 0; 0
0; 0; 0; 0
18; 11; 2; 1
51; 63; 70; 96
110; 138; 129; 143
169; 216; 231; 250
183; 255; 258; 258
168; 245; 253; 254
149; 228; 257; 242
120; 183; 204; 216
78; 134; 134; 136
28; 58; 91; 128
0; 1; 14; 26
0; 0; 0; 0
0; 0; 0; 0
0; 0; 0; 0
0; 0; 0; 0
9; 0; 0; 0
39; 38; 38; 46
84; 118; 122; 129
130; 191; 194; 200
178; 256; 255; 245
177; 256; 255; 248
153; 235; 259; 254
132; 200; 228; 255
87; 151; 153; 142
37; 80; 112; 126
0; 7; 18; 24
0; 0; 0; 0
0; 0; 0; 0
0; 0; 0; 0
0; 0; 0; 0
0; 0; 0; 0
11; 1; 0; 0
44; 43; 49; 57
95; 127; 127; 130
150; 195; 209; 228
186; 254; 257; 253
176; 253; 254; 253
148; 227; 257; 245
128; 199; 231; 253
85; 137; 132; 150
32; 63; 93; 124
0; 1; 12; 19
0; 0; 0; 0
0; 0; 0; 0
0; 0; 0; 0
0; 0; 0; 0
1; 0; 0; 0
25; 19; 15; 15
71; 88; 119; 130
133; 153; 151; 138
184; 243; 239; 231
190; 256; 247; 257
169; 250; 256; 254
141; 219; 251; 256
102; 178; 191; 194
61; 123; 142; 131
4; 31; 50; 66
0; 0; 0; 1
0; 0; 0; 0
0; 0; 0; 0
0; 0; 0; 0
0; 0; 0; 0
10; 0; 0; 0
37; 36; 38; 41
81; 111; 134; 126
136; 179; 183; 187
179; 254; 253; 256
174; 255; 252; 253
152; 242; 242; 252
129; 227; 252; 260
89; 166; 169; 166
37; 88; 126; 125
0; 20; 43; 66
0; 0; 0; 0
0; 0; 0; 0
0; 0; 0; 0
0; 0; 0; 0
1; 0; 0; 0
19; 8; 2; 0
50; 57; 66; 84
96; 129; 126; 136
155; 197; 212; 235
188; 254; 253; 259
168; 247; 251; 258
149; 240; 252; 254
122; 189; 209; 229
83; 134; 136; 128
31; 68; 96; 129
0; 2; 11; 24
0; 0; 0; 0
0; 0; 0; 0
0; 0; 0; 0
0; 0; 0; 0
4; 0; 0; 0
31; 29; 31; 34
75; 101; 133; 131
133; 159; 158; 149
179; 240; 260; 248
186; 258; 263; 252
160; 240; 259; 257
132; 233; 255; 247
90; 175; 177; 176
51; 114; 127; 138
0; 28; 42; 59
0; 0; 0; 0
0; 0; 0; 0
0; 0; 0; 0
0; 0; 0; 0
0; 0; 0; 0
16; 5; 0; 0
43; 44; 48; 58
93; 130; 127; 129
137; 181; 186; 192
183; 250; 256; 249
173; 250; 263; 241
151; 234; 249; 248
126; 198; 217; 247
89; 147; 142; 138
38; 79; 114; 131
0; 8; 31; 51
0; 0; 0; 0
0; 0; 0; 0
0; 0; 0; 0
0; 0; 0; 0
1; 0; 0; 0
19; 11; 2; 1
59; 73; 90; 120
115; 129; 130; 137
179; 230; 253; 259
199; 264; 258; 260
171; 254; 256; 249
147; 228; 260; 248
113; 181; 201; 213
74; 129; 132; 135
15; 49; 77; 109
0; 0; 5; 15
0; 0; 0; 0
0; 0; 0; 0
0; 0; 0; 0
0; 0; 0; 0
12; 0; 0; 0
44; 48; 55; 68
87; 118; 140; 130
137; 171; 176; 180
175; 247; 249; 260
170; 253; 248; 252
150; 238; 254; 259
128; 222; 249; 258
84; 157; 159; 156
35; 81; 117; 135
0; 8; 20; 31
0; 0; 0; 0
0; 0; 0; 0
0; 0; 0; 0
0; 0; 0; 0
0; 0; 0; 0
21; 15; 6; 5
53; 64; 73; 103
112; 128; 139; 128
170; 217; 238; 231
190; 256; 261; 254
168; 249; 249; 250
151; 241; 256; 262
116; 186; 201; 215
74; 130; 148; 133
24; 55; 88; 125
0; 0; 10; 21
0; 0; 0; 0
0; 0; 0; 0
0; 0; 0; 0
0; 0; 0; 0
10; 0; 0; 0
45; 49; 53; 67
90; 124; 136; 132
138; 175; 179; 177
182; 249; 256; 256
172; 252; 259; 257
146; 230; 259; 245
124; 212; 246; 243
79; 146; 153; 140
36; 80; 118; 136
0; 7; 14; 25
0; 0; 0; 0
0; 0; 0; 0
0; 0; 0; 0
0; 0; 0; 0
0; 0; 0; 0
16; 5; 0; 0
52; 58; 67; 88
95; 133; 133; 132
151; 197; 211; 232
185; 254; 256; 253
169; 252; 253; 256
151; 235; 252; 255
123; 190; 209; 225
84; 134; 153; 140
28; 58; 92; 127
0; 0; 11; 18
0; 0; 0; 0
0; 0; 0; 0
0; 0; 0; 0
0; 0; 0; 0
0; 0; 0; 0
25; 16; 12; 4
61; 75; 94; 126
123; 134; 147; 137
174; 223; 242; 248
178; 253; 252; 258
165; 252; 258; 252
141; 220; 246; 254
102; 183; 195; 205
63; 129; 131; 135
12; 43; 66; 97
0; 0; 3; 8
0; 0; 0; 0
0; 0; 0; 0
0; 0; 0; 0
0; 0; 0; 0
9; 0; 0; 0
41; 38; 39; 46
81; 112; 135; 126
136; 173; 177; 181
179; 250; 258; 253
177; 258; 250; 242
151; 238; 250; 251
130; 218; 248; 259
102; 178; 187; 198
50; 109; 129; 130
0; 21; 34; 45
0; 0; 0; 0
0; 0; 0; 0
0; 0; 0; 0
0; 0; 0; 0
0; 0; 0; 0
12; 2; 0; 0
41; 48; 52; 67
100; 127; 131; 130
186; 246; 248; 243
234; 317; 289; 253
220; 296; 256; 256
198; 259; 261; 256
133; 207; 231; 253
69; 131; 128; 132
3; 28; 41; 52
0; 0; 0; 0
0; 0; 0; 0
0; 0; 0; 0
0; 0; 0; 0
0; 0; 0; 0
0; 0; 0; 0
7; 0; 0; 0
39; 38; 43; 51
92; 128; 126; 125
176; 234; 251; 233
242; 301; 274; 256
234; 309; 264; 255
210; 277; 248; 253
158; 230; 251; 232
99; 171; 173; 165
26; 67; 103; 133
0; 0; 6; 5
0; 0; 0; 0
0; 0; 0; 0
0; 0; 0; 0
0; 0; 0; 0
0; 0; 0; 0
13; 0; 0; 0
40; 41; 42; 50
100; 131; 131; 126
191; 251; 258; 250
242; 294; 265; 258
229; 297; 258; 245
206; 266; 261; 252
144; 202; 231; 246
78; 134; 138; 131
14; 39; 61; 81
0; 0; 0; 0
0; 0; 0; 0
0; 0; 0; 0
0; 0; 0; 0
0; 0; 0; 0
0; 0; 0; 0
13; 1; 0; 0
46; 49; 54; 73
106; 131; 129; 134
196; 252; 239; 241
249; 305; 276; 255
231; 302; 260; 247
213; 283; 253; 254
149; 213; 239; 233
80; 134; 158; 139
17; 39; 66; 91
0; 0; 0; 0
0; 0; 0; 0
0; 0; 0; 0
0; 0; 0; 0
0; 0; 0; 0
0; 0; 0; 0
6; 0; 0; 0
39; 38; 43; 54
90; 125; 126; 128
177; 235; 256; 241
245; 305; 282; 256
240; 288; 261; 248
208; 266; 257; 251
159; 224; 254; 230
101; 164; 165; 155
28; 63; 97; 130
0; 0; 4; 7
0; 0; 0; 0
0; 0; 0; 0
0; 0; 0; 0
0; 0; 0; 0
0; 0; 0; 0
13; 0; 0; 0
44; 48; 56; 71
100; 133; 126; 136
196; 250; 252; 253
251; 308; 279; 256
237; 306; 266; 256
214; 284; 255; 252
151; 217; 249; 250
89; 148; 143; 137
20; 49; 73; 102
0; 0; 0; 0
0; 0; 0; 0
0; 0; 0; 0
0; 0; 0; 0
0; 0; 0; 0
0; 0; 0; 0
10; 0; 0; 0
46; 50; 61; 79
105; 127; 132; 136
197; 247; 259; 244
247; 316; 290; 256
228; 305; 264; 252
207; 276; 249; 241
135; 194; 213; 227
68; 128; 145; 129
2; 23; 40; 51
0; 0; 0; 0
0; 0; 0; 0
0; 0; 0; 0
0; 0; 0; 0
0; 0; 0; 0
0; 0; 0; 0
9; 0; 0; 0
34; 32; 28; 32
94; 128; 129; 128
177; 235; 254; 246
246; 307; 285; 259
237; 314; 274; 251
213; 283; 260; 247
155; 227; 257; 237
100; 173; 179; 175
19; 60; 96; 128
0; 0; 1; 2
0; 0; 0; 0
0; 0; 0; 0
0; 0; 0; 0
0; 0; 0; 0
0; 0; 0; 0
7; 0; 0; 0
35; 32; 32; 34
88; 121; 133; 127
171; 223; 247; 256
244; 302; 273; 255
239; 314; 270; 256
213; 285; 258; 255
160; 234; 259; 250
102; 178; 178; 173
24; 68; 103; 133
0; 0; 4; 4
0; 0; 0; 0
0; 0; 0; 0
0; 0; 0; 0
0; 0; 0; 0
0; 0; 0; 0
15; 1; 0; 0
49; 53; 59; 78
105; 128; 135; 130
196; 251; 255; 247
249; 304; 270; 267
230; 296; 261; 253
214; 279; 256; 254
146; 208; 236; 254
83; 134; 163; 149
15; 34; 62; 88
0; 0; 0; 0
0; 0; 0; 0
0; 0; 0; 0
0; 0; 0; 0
0; 0; 0; 0
0; 0; 0; 0
14; 3; 0; 0
49; 56; 64; 86
110; 134; 135; 142
198; 250; 258; 248
250; 323; 304; 266
227; 306; 269; 253
205; 273; 256; 242
136; 195; 219; 235
77; 133; 134; 137
7; 30; 51; 68
0; 0; 0; 0
0; 0; 0; 0
0; 0; 0; 0
0; 0; 0; 0
0; 0; 0; 0
0; 0; 0; 0
6; 0; 0; 0
34; 31; 29; 31
94; 126; 128; 128
173; 228; 250; 253
246; 305; 279; 252
242; 291; 256; 248
216; 275; 251; 245
165; 234; 262; 241
103; 171; 177; 161
32; 74; 114; 121
0; 0; 4; 1
0; 0; 0; 0
0; 0; 0; 0
0; 0; 0; 0
0; 0; 0; 0
0; 0; 0; 0
9; 0; 0; 0
37; 36; 35; 38
92; 127; 127; 126
175; 236; 251; 238
247; 307; 283; 253
238; 286; 258; 258
211; 265; 257; 257
158; 219; 246; 247
98; 160; 156; 142
25; 57; 87; 117
0; 0; 1; 4
0; 0; 0; 0
0; 0; 0; 0
0; 0; 0; 0
0; 0; 0; 0
0; 0; 0; 0
6; 0; 0; 0
33; 28; 29; 28
89; 121; 139; 128
173; 229; 255; 237
245; 305; 279; 252
240; 289; 256; 253
212; 267; 260; 249
158; 221; 248; 250
95; 159; 155; 143
30; 70; 104; 128
0; 0; 0; 0
0; 0; 0; 0
0; 0; 0; 0
0; 0; 0; 0
0; 0; 0; 0
0; 0; 0; 0
4; 0; 0; 0
36; 33; 35; 42
92; 126; 124; 125
170; 227; 249; 252
245; 303; 278; 249
237; 314; 271; 253
211; 278; 250; 252
160; 233; 260; 241
103; 177; 183; 173
26; 69; 111; 120
0; 0; 5; 5
0; 0; 0; 0
0; 0; 0; 0
0; 0; 0; 0
0; 0; 0; 0
0; 0; 0; 0
9; 0; 0; 0
41; 42; 47; 57
98; 130; 139; 129
175; 229; 246; 251
247; 302; 278; 247
242; 288; 256; 254
216; 272; 255; 242
159; 226; 247; 252
93; 156; 154; 133
27; 66; 96; 125
0; 0; 1; 1
0; 0; 0; 0
0; 0; 0; 0
0; 0; 0; 0
0; 0; 0; 0
0; 0; 0; 0
8; 0; 0; 0
40; 38; 38; 46
87; 118; 133; 130
171; 229; 251; 254
239; 322; 295; 257
233; 314; 275; 246
206; 279; 249; 255
160; 234; 259; 241
102; 176; 186; 178
30; 74; 120; 128
0; 0; 6; 1
0; 0; 0; 0
0; 0; 0; 0
0; 0; 0; 0
0; 0; 0; 0
0; 0; 0; 0
12; 0; 0; 0
44; 50; 57; 73
104; 130; 124; 133
194; 251; 258; 243
246; 322; 297; 260
228; 311; 273; 249
204; 271; 257; 252
137; 197; 218; 247
80; 133; 134; 151
14; 40; 60; 87
0; 0; 0; 0
0; 0; 0; 0
0; 0; 0; 0
0; 0; 0; 0
0; 0; 0; 0
0; 0; 0; 0
12; 0; 0; 0
44; 47; 53; 68
101; 129; 131; 135
193; 250; 253; 246
245; 317; 294; 259
229; 310; 272; 255
207; 276; 254; 248
141; 203; 229; 248
81; 134; 157; 142
10; 28; 52; 69
0; 0; 0; 0
0; 0; 0; 0
0; 0; 0; 0
0; 0; 0; 0
0; 0; 0; 0
0; 0; 0; 0
8; 0; 0; 0
35; 32; 30; 35
95; 126; 130; 131
178; 240; 262; 252
242; 302; 276; 261
238; 316; 275; 248
214; 285; 255; 259
159; 234; 254; 241
94; 165; 165; 147
28; 69; 105; 135
0; 0; 1; 1
0; 0; 0; 0
0; 0; 0; 0
0; 0; 0; 0
0; 0; 0; 0
0; 0; 0; 0
9; 0; 0; 0
41; 42; 46; 58
95; 125; 138; 131
172; 224; 248; 259
246; 303; 276; 248
237; 315; 271; 246
217; 285; 261; 247
162; 235; 259; 249
97; 167; 164; 149
29; 73; 110; 117
0; 0; 4; 2
0; 0; 0; 0
0; 0; 0; 0
0; 0; 0; 0
0; 0; 0; 0
0; 0; 0; 0
12; 0; 0; 0
44; 48; 53; 72
97; 129; 137; 130
177; 234; 249; 255
248; 306; 282; 247
239; 315; 273; 245
215; 285; 258; 254
159; 232; 259; 246
96; 167; 171; 166
29; 69; 111; 123
0; 0; 5; 4
0; 0; 0; 0
0; 0; 0; 0
0; 0; 0; 0
0; 0; 0; 0
0; 0; 0; 0
13; 3; 0; 0
46; 50; 57; 77
109; 134; 135; 136
200; 252; 248; 252
247; 298; 270; 260
230; 300; 263; 247
215; 278; 258; 256
148; 210; 241; 235
81; 138; 137; 136
9; 36; 58; 80
0; 0; 0; 0
0; 0; 0; 0
0; 0; 0; 0
0; 0; 0; 0
0; 0; 0; 0
0; 0; 0; 0
3; 0; 0; 0
37; 33; 37; 44
92; 127; 126; 129
172; 228; 250; 257
246; 302; 279; 249
241; 289; 260; 254
214; 273; 249; 242
159; 222; 248; 254
100; 168; 170; 163
28; 67; 104; 132
0; 0; 1; 0
0; 0; 0; 0
0; 0; 0; 0
0; 0; 0; 0
0; 0; 0; 0
0; 0; 0; 0
12; 1; 0; 0
47; 50; 60; 78
107; 127; 135; 126
194; 247; 255; 247
243; 296; 266; 264
231; 298; 255; 263
215; 278; 254; 253
148; 208; 242; 232
83; 138; 134; 145
14; 38; 55; 75
0; 0; 0; 0
0; 0; 0; 0
0; 0; 0; 0
0; 0; 0; 0
0; 0; 0; 0
0; 0; 0; 0
9; 0; 0; 0
38; 36; 38; 39
102; 129; 135; 132
193; 249; 260; 254
246; 299; 273; 269
233; 303; 263; 252
213; 280; 259; 247
149; 213; 248; 241
86; 144; 143; 134
22; 50; 76; 106
0; 0; 0; 1
0; 0; 0; 0
0; 0; 0; 0
0; 0; 0; 0
0; 0; 0; 0
0; 0; 0; 0
10; 0; 0; 0
44; 49; 56; 74
109; 135; 135; 132
200; 253; 248; 247
247; 303; 273; 266
231; 303; 261; 250
213; 281; 259; 247
143; 205; 236; 247
78; 128; 153; 130
8; 25; 46; 54
0; 0; 0; 0
0; 0; 0; 0
0; 0; 0; 0
0; 0; 0; 0
0; 0; 0; 0
0; 0; 0; 0
7; 0; 0; 0
33; 29; 27; 32
89; 123; 131; 131
169; 220; 246; 248
243; 302; 280; 256
233; 309; 262; 259
212; 284; 254; 248
164; 238; 256; 244
101; 172; 178; 164
32; 74; 117; 130
0; 0; 11; 13
0; 0; 0; 0
0; 0; 0; 0
0; 0; 0; 0
0; 0; 0; 0
0; 0; 0; 0
18; 9; 4; 0
52; 61; 73; 98
114; 128; 131; 147
213; 258; 255; 256
245; 316; 289; 256
229; 305; 264; 251
207; 276; 248; 253
128; 203; 222; 241
67; 135; 132; 137
0; 20; 33; 45
0; 0; 0; 0
0; 0; 0; 0
0; 0; 0; 0
0; 0; 0; 0
0; 0; 0; 0
0; 0; 0; 0
17; 5; 0; 0
45; 51; 60; 75
107; 130; 131; 140
200; 252; 263; 259
249; 322; 297; 264
227; 304; 265; 253
206; 275; 255; 242
136; 197; 221; 243
68; 127; 149; 134
2; 20; 40; 53
0; 0; 0; 0
0; 0; 0; 0
0; 0; 0; 0
0; 0; 0; 0
0; 0; 0; 0
0; 0; 0; 0
12; 0; 0; 0
43; 44; 45; 50
107; 130; 128; 136
191; 252; 260; 250
246; 320; 301; 264
224; 301; 263; 254
202; 266; 256; 255
144; 202; 227; 254
82; 134; 156; 141
11; 30; 53; 68
0; 0; 0; 0
0; 0; 0; 0
0; 0; 0; 0
0; 0; 0; 0
0; 0; 0; 0
0; 0; 0; 0
10; 0; 0; 0
45; 45; 52; 70
107; 130; 128; 137
199; 255; 242; 245
245; 318; 292; 257
224; 299; 264; 246
201; 266; 261; 256
143; 203; 232; 249
76; 129; 132; 138
11; 34; 48; 64
0; 0; 0; 0
0; 0; 0; 0
0; 0; 0; 0
0; 0; 0; 0
0; 0; 0; 0
0; 0; 0; 0
12; 0; 0; 0
47; 45; 52; 69
103; 129; 130; 135
193; 250; 259; 246
245; 320; 296; 257
228; 310; 272; 249
200; 271; 247; 257
147; 208; 232; 250
83; 138; 137; 137
17; 38; 62; 87
0; 0; 0; 0
0; 0; 0; 0
0; 0; 0; 0
0; 0; 0; 0
0; 0; 0; 0
0; 0; 0; 0
13; 1; 0; 0
46; 46; 57; 72
106; 135; 128; 134
196; 252; 239; 242
244; 316; 287; 257
228; 310; 270; 262
210; 278; 253; 247
148; 215; 246; 244
83; 137; 133; 144
17; 41; 61; 87
0; 0; 0; 0
0; 0; 0; 0
0; 0; 0; 0
0; 0; 0; 0
0; 0; 0; 0
0; 0; 0; 0
6; 0; 0; 0
39; 39; 38; 48
95; 127; 127; 129
175; 231; 250; 257
248; 309; 284; 254
241; 291; 261; 254
216; 276; 254; 248
166; 232; 254; 243
103; 176; 183; 186
31; 75; 120; 132
0; 0; 11; 16
0; 0; 0; 0
0; 0; 0; 0
0; 0; 0; 0
0; 0; 0; 0
0; 0; 0; 0
22; 11; 3; 2
60; 73; 87; 121
129; 142; 130; 132
220; 261; 248; 252
249; 291; 257; 256
234; 298; 257; 254
211; 271; 246; 253
130; 176; 185; 181
66; 116; 133; 127
0; 8; 15; 15
0; 0; 0; 0
0; 0; 0; 0
0; 0; 0; 0
0; 0; 0; 0
0; 0; 0; 0
0; 0; 0; 0
18; 12; 4; 2
60; 74; 95; 124
128; 138; 130; 134
215; 257; 243; 259
247; 296; 262; 258
224; 288; 250; 261
205; 263; 255; 253
132; 171; 178; 175
65; 121; 132; 132
0; 15; 25; 28
0; 0; 0; 0
0; 0; 0; 0
0; 0; 0; 0
0; 0; 0; 0
0; 0; 0; 0
0; 0; 0; 0
22; 17; 14; 12
72; 91; 122; 131
130; 185; 195; 206
216; 287; 260; 266
239; 314; 278; 254
217; 288; 261; 257
181; 256; 249; 258
125; 177; 185; 185
52; 105; 138; 128
0; 4; 15; 15
0; 0; 0; 0
0; 0; 0; 0
0; 0; 0; 0
0; 0; 0; 0
0; 0; 0; 0
5; 0; 0; 0
36; 32; 34; 40
82; 115; 121; 124
165; 219; 246; 242
238; 320; 300; 267
240; 296; 263; 258
213; 270; 252; 259
162; 229; 250; 255
108; 182; 191; 188
32; 76; 116; 134
0; 0; 2; 1
0; 0; 0; 0
0; 0; 0; 0
0; 0; 0; 0
0; 0; 0; 0
0; 0; 0; 0
6; 0; 0; 0
37; 37; 38; 47
86; 117; 134; 126
174; 228; 250; 254
245; 303; 277; 255
240; 289; 254; 258
216; 273; 247; 253
165; 233; 256; 248
101; 170; 172; 169
29; 71; 113; 124
0; 0; 5; 4
0; 0; 0; 0
0; 0; 0; 0
0; 0; 0; 0
0; 0; 0; 0
0; 0; 0; 0
13; 0; 0; 0
48; 51; 59; 78
109; 132; 135; 137
194; 247; 259; 245
249; 321; 301; 262
228; 308; 273; 248
203; 270; 256; 250
143; 203; 231; 246
77; 128; 132; 135
13; 38; 57; 78
0; 0; 0; 0
0; 0; 0; 0
0; 0; 0; 0
0; 0; 0; 0
0; 0; 0; 0
0; 0; 0; 0
14; 2; 0; 0
40; 43; 43; 53
100; 133; 128; 128
197; 250; 260; 255
246; 318; 291; 254
226; 301; 265; 248
204; 268; 258; 248
143; 203; 231; 253
75; 128; 132; 136
12; 38; 54; 77
0; 0; 0; 0
0; 0; 0; 0
0; 0; 0; 0
0; 0; 0; 0
0; 0; 0; 0
0; 0; 0; 0
12; 1; 0; 0
45; 50; 57; 75
108; 134; 133; 131
199; 257; 248; 245
248; 303; 279; 256
235; 306; 262; 258
210; 275; 251; 260
152; 212; 241; 232
84; 142; 140; 131
17; 43; 61; 86
0; 0; 0; 0
0; 0; 0; 0
0; 0; 0; 0
0; 0; 0; 0
0; 0; 0; 0
0; 0; 0; 0
13; 0; 0; 0
40; 40; 42; 50
95; 129; 132; 123
183; 242; 263; 243
247; 309; 283; 251
237; 314; 274; 249
213; 284; 258; 246
155; 225; 254; 235
92; 159; 158; 145
19; 50; 78; 108
0; 0; 0; 1
0; 0; 0; 0
0; 0; 0; 0
0; 0; 0; 0
0; 0; 0; 0
0; 0; 0; 0
13; 0; 0; 0
44; 49; 57; 73
101; 129; 132; 132
193; 249; 257; 248
246; 321; 298; 266
229; 310; 274; 254
208; 277; 253; 246
142; 203; 230; 250
84; 135; 163; 147
15; 40; 66; 96
0; 0; 0; 0
0; 0; 0; 0
0; 0; 0; 0
0; 0; 0; 0
0; 0; 0; 0
0; 0; 0; 0
6; 0; 0; 0
39; 38; 39; 51
97; 127; 127; 129
176; 233; 251; 230
247; 307; 283; 253
238; 317; 277; 246
215; 284; 263; 251
159; 229; 255; 241
101; 173; 182; 182
26; 69; 111; 125
0; 0; 1; 1
0; 0; 0; 0
0; 0; 0; 0
0; 0; 0; 0
0; 0; 0; 0
0; 0; 0; 0
12; 1; 0; 0
47; 50; 57; 75
113; 131; 134; 136
197; 252; 257; 243
247; 320; 294; 263
229; 310; 273; 249
205; 271; 253; 252
141; 202; 230; 252
70; 127; 152; 132
3; 27; 47; 61
0; 0; 0; 0
0; 0; 0; 0
0; 0; 0; 0
0; 0; 0; 0
0; 0; 0; 0
0; 0; 0; 0
5; 0; 0; 0
40; 38; 41; 51
94; 126; 131; 135
172; 230; 246; 254
239; 327; 299; 266
236; 317; 281; 254
214; 286; 259; 250
160; 239; 262; 241
100; 178; 187; 181
28; 73; 120; 129
0; 0; 6; 6
0; 0; 0; 0
0; 0; 0; 0
0; 0; 0; 0
0; 0; 0; 0
0; 0; 0; 0
6; 0; 0; 0
38; 36; 34; 40
102; 126; 136; 129
194; 250; 257; 250
247; 301; 268; 261
235; 306; 265; 251
213; 277; 257; 250
146; 209; 241; 231
88; 143; 142; 135
13; 37; 53; 76
0; 0; 0; 0
0; 0; 0; 0
0; 0; 0; 0
0; 0; 0; 0
0; 0; 0; 0
0; 0; 0; 0
10; 0; 0; 0
43; 44; 49; 64
100; 133; 135; 131
193; 254; 253; 253
247; 302; 268; 266
231; 302; 259; 246
213; 279; 260; 257
151; 218; 246; 250
90; 148; 145; 139
21; 50; 74; 106
0; 0; 0; 3
0; 0; 0; 0
0; 0; 0; 0
0; 0; 0; 0
0; 0; 0; 0
0; 0; 0; 0
8; 0; 0; 0
38; 36; 36; 37
95; 124; 127; 125
182; 245; 244; 240
245; 303; 277; 256
238; 315; 271; 258
210; 277; 254; 257
155; 220; 250; 249
98; 161; 161; 151
23; 57; 88; 116
0; 0; 1; 1
0; 0; 0; 0
0; 0; 0; 0
0; 0; 0; 0
0; 0; 0; 0
0; 0; 0; 0
3; 0; 0; 0
36; 33; 35; 41
90; 123; 132; 126
170; 225; 244; 250
245; 303; 274; 257
240; 290; 258; 262
214; 273; 248; 244
164; 230; 255; 240
100; 169; 172; 161
29; 71; 109; 118
0; 0; 1; 0
0; 0; 0; 0
0; 0; 0; 0
0; 0; 0; 0
0; 0; 0; 0
0; 0; 0; 0
10; 1; 0; 0
48; 49; 57; 76
104; 130; 121; 129
200; 256; 244; 245
247; 323; 299; 261
229; 312; 273; 252
203; 271; 252; 250
141; 202; 230; 254
73; 131; 133; 133
4; 31; 47; 65
0; 0; 0; 0
0; 0; 0; 0
0; 0; 0; 0
0; 0; 0; 0
0; 0; 0; 0
0; 0; 0; 0
6; 0; 0; 0
32; 31; 27; 32
90; 120; 129; 130
166; 219; 243; 245
243; 302; 279; 251
235; 309; 265; 257
211; 278; 248; 258
159; 229; 252; 237
95; 167; 166; 157
32; 76; 117; 131
0; 0; 9; 15
0; 0; 0; 0
0; 0; 0; 0
0; 0; 0; 0
0; 0; 0; 0
0; 0; 0; 0
10; 0; 0; 0
43; 49; 57; 73
100; 130; 125; 136
197; 251; 251; 254
250; 309; 279; 248
235; 306; 268; 255
213; 279; 258; 250
151; 216; 243; 251
79; 137; 135; 131
11; 32; 52; 69
0; 0; 0; 0
0; 0; 0; 0
0; 0; 0; 0
0; 0; 0; 0
0; 0; 0; 0
0; 0; 0; 0
8; 0; 0; 0
40; 38; 41; 53
93; 124; 127; 126
176; 233; 251; 255
248; 308; 282; 253
239; 317; 279; 248
212; 280; 253; 245
163; 234; 260; 246
101; 175; 183; 186
27; 71; 113; 132
0; 0; 8; 12
0; 0; 0; 0
0; 0; 0; 0
0; 0; 0; 0
0; 0; 0; 0
0; 0; 0; 0
15; 3; 0; 0
49; 52; 58; 72
116; 134; 132; 130
205; 254; 247; 245
247; 300; 269; 259
236; 308; 265; 259
215; 285; 259; 249
140; 201; 220; 241
69; 128; 149; 128
1; 19; 39; 42
0; 0; 0; 0
0; 0; 0; 0
0; 0; 0; 0
0; 0; 0; 0
0; 0; 0; 0
0; 0; 0; 0
11; 0; 0; 0
41; 40; 43; 53
105; 130; 131; 133
197; 252; 255; 248
247; 307; 279; 257
237; 309; 264; 248
215; 285; 259; 254
144; 211; 241; 231
78; 133; 163; 143
10; 26; 51; 65
0; 0; 0; 0
0; 0; 0; 0
0; 0; 0; 0
0; 0; 0; 0
0; 0; 0; 0
0; 0; 0; 0
10; 1; 0; 0
39; 40; 42; 51
108; 131; 132; 131
198; 252; 262; 259
245; 318; 288; 261
222; 300; 264; 247
202; 270; 255; 254
137; 198; 222; 242
69; 131; 153; 133
5; 30; 53; 79
0; 0; 0; 0
0; 0; 0; 0
0; 0; 0; 0
0; 0; 0; 0
0; 0; 0; 0
0; 0; 0; 0
10; 0; 0; 0
44; 47; 53; 66
103; 133; 130; 134
195; 250; 249; 252
249; 304; 267; 263
236; 306; 264; 251
211; 275; 251; 248
146; 210; 240; 236
83; 137; 133; 141
12; 33; 51; 68
0; 0; 0; 0
0; 0; 0; 0
0; 0; 0; 0
0; 0; 0; 0
0; 0; 0; 0
0; 0; 0; 0
6; 0; 0; 0
33; 28; 26; 31
93; 126; 124; 132
177; 236; 252; 242
247; 306; 283; 253
242; 293; 257; 253
212; 267; 261; 253
155; 218; 245; 245
101; 166; 168; 159
27; 64; 99; 130
0; 0; 0; 2
0; 0; 0; 0
0; 0; 0; 0
0; 0; 0; 0
0; 0; 0; 0
0; 0; 0; 0
8; 0; 0; 0
39; 38; 43; 52
92; 125; 124; 126
171; 229; 250; 258
246; 306; 281; 253
239; 290; 262; 254
211; 267; 260; 256
157; 218; 247; 250
100; 164; 166; 158
27; 64; 96; 127
0; 0; 1; 1
0; 0; 0; 0
0; 0; 0; 0
0; 0; 0; 0
0; 0; 0; 0
0; 0; 0; 0
8; 0; 0; 0
33; 31; 30; 32
88; 118; 133; 124
174; 232; 249; 237
240; 323; 296; 259
235; 316; 276; 248
208; 279; 253; 247
158; 234; 256; 254
95; 166; 159; 147
27; 63; 96; 127
0; 0; 4; 5
0; 0; 0; 0
0; 0; 0; 0
0; 0; 0; 0
0; 0; 0; 0
0; 0; 0; 0
5; 0; 0; 0
31; 25; 25; 26
84; 118; 121; 121
170; 226; 247; 252
245; 303; 279; 249
241; 289; 260; 258
213; 271; 251; 250
169; 241; 257; 245
110; 186; 200; 201
38; 88; 126; 131
0; 0; 2; 1
0; 0; 0; 0
0; 0; 0; 0
0; 0; 0; 0
0; 0; 0; 0
0; 0; 0; 0
2; 0; 0; 0
36; 35; 37; 46
86; 117; 131; 127
176; 231; 247; 256
245; 305; 279; 247
239; 319; 278; 246
213; 281; 257; 248
163; 240; 252; 249
102; 179; 179; 179
28; 75; 116; 132
0; 0; 8; 12
0; 0; 0; 0
0; 0; 0; 0
0; 0; 0; 0
0; 0; 0; 0
0; 0; 0; 0
12; 1; 0; 0
44; 45; 50; 59
115; 129; 136; 132
209; 253; 250; 255
248; 319; 291; 253
229; 307; 267; 253
205; 270; 253; 257
137; 195; 216; 237
75; 129; 156; 137
2; 23; 42; 50
0; 0; 0; 0
0; 0; 0; 0
0; 0; 0; 0
0; 0; 0; 0
0; 0; 0; 0
0; 0; 0; 0
10; 0; 0; 0
46; 49; 56; 74
109; 131; 140; 136
199; 250; 252; 256
248; 302; 270; 265
231; 304; 259; 246
212; 280; 258; 255
150; 213; 250; 248
83; 142; 142; 132
15; 40; 61; 86
0; 0; 0; 0
0; 0; 0; 0
0; 0; 0; 0
0; 0; 0; 0
0; 0; 0; 0
0; 0; 0; 0
13; 0; 0; 0
44; 50; 56; 70
103; 130; 126; 135
197; 254; 258; 251
248; 321; 292; 258
229; 310; 273; 252
204; 270; 255; 250
144; 208; 236; 225
79; 135; 159; 142
7; 28; 49; 68
0; 0; 0; 0
0; 0; 0; 0
0; 0; 0; 0
0; 0; 0; 0
0; 0; 0; 0
0; 0; 0; 0
2; 0; 0; 0
35; 36; 36; 40
89; 123; 131; 125
170; 227; 252; 253
245; 304; 279; 254
240; 290; 261; 248
212; 267; 253; 257
161; 225; 254; 257
97; 163; 161; 147
31; 69; 103; 125
0; 0; 2; 0
0; 0; 0; 0
0; 0; 0; 0
0; 0; 0; 0
0; 0; 0; 0
0; 0; 0; 0
7; 0; 0; 0
33; 28; 29; 30
89; 123; 125; 127
173; 235; 254; 242
245; 308; 286; 259
238; 311; 272; 259
218; 287; 258; 255
165; 245; 247; 248
110; 187; 201; 201
35; 89; 128; 128
0; 0; 8; 10
0; 0; 0; 0
0; 0; 0; 0
0; 0; 0; 0
0; 0; 0; 0
0; 0; 0; 0
10; 0; 0; 0
50; 51; 61; 81
114; 132; 134; 141
202; 257; 258; 255
253; 329; 303; 265
229; 308; 271; 255
210; 279; 254; 246
143; 204; 231; 252
73; 130; 129; 132
3; 27; 35; 42
0; 0; 0; 0
0; 0; 0; 0
0; 0; 0; 0
0; 0; 0; 0
0; 0; 0; 0
0; 0; 0; 0
8; 0; 0; 0
34; 32; 34; 37
95; 129; 130; 132
178; 240; 261; 249
244; 302; 280; 262
233; 308; 262; 258
213; 283; 254; 252
158; 226; 248; 253
99; 166; 164; 151
31; 72; 109; 117
0; 0; 4; 2
0; 0; 0; 0
0; 0; 0; 0
0; 0; 0; 0
0; 0; 0; 0
0; 0; 0; 0
8; 0; 0; 0
39; 38; 43; 52
98; 127; 128; 131
180; 243; 239; 240
249; 312; 290; 256
239; 312; 274; 263
214; 281; 253; 247
163; 236; 248; 252
99; 171; 164; 146
31; 75; 112; 120
0; 0; 5; 4
0; 0; 0; 0
0; 0; 0; 0
0; 0; 0; 0
0; 0; 0; 0
0; 0; 0; 0
12; 0; 0; 0
45; 49; 53; 69
101; 128; 128; 134
191; 247; 250; 258
246; 320; 297; 259
228; 310; 272; 256
206; 270; 256; 252
149; 210; 241; 232
85; 144; 142; 136
11; 35; 53; 71
0; 0; 0; 0
0; 0; 0; 0
0; 0; 0; 0
0; 0; 0; 0
0; 0; 0; 0
0; 0; 0; 0
7; 0; 0; 0
33; 28; 28; 34
92; 127; 124; 131
171; 227; 249; 256
246; 306; 280; 253
241; 289; 256; 249
212; 266; 260; 256
159; 222; 251; 260
97; 159; 160; 145
31; 71; 104; 130
0; 0; 1; 0
0; 0; 0; 0
0; 0; 0; 0
0; 0; 0; 0
0; 0; 0; 0
0; 0; 0; 0
7; 0; 0; 0
35; 29; 32; 32
93; 128; 126; 127
173; 228; 252; 255
247; 307; 283; 255
241; 290; 257; 252
216; 274; 254; 249
164; 232; 260; 242
103; 170; 177; 159
29; 66; 104; 125
0; 0; 3; 1
0; 0; 0; 0
0; 0; 0; 0
0; 0; 0; 0
0; 0; 0; 0
0; 0; 0; 0
8; 0; 0; 0
42; 40; 44; 57
100; 132; 138; 136
192; 253; 249; 250
245; 302; 268; 262
236; 305; 264; 251
211; 276; 257; 247
148; 210; 243; 234
81; 138; 132; 139
16; 41; 59; 80
0; 0; 0; 0
0; 0; 0; 0
0; 0; 0; 0
0; 0; 0; 0
0; 0; 0; 0
0; 0; 0; 0
1; 0; 0; 0
35; 36; 39; 47
90; 126; 123; 125
170; 225; 249; 256
246; 306; 280; 253
242; 292; 256; 252
212; 269; 253; 258
160; 221; 251; 252
98; 160; 159; 147
30; 71; 105; 135
0; 0; 3; 3
0; 0; 0; 0
0; 0; 0; 0
0; 0; 0; 0
0; 0; 0; 0
0; 0; 0; 0
6; 0; 0; 0
34; 28; 29; 29
90; 122; 131; 130
171; 223; 245; 255
247; 303; 275; 258
243; 293; 255; 263
217; 277; 253; 246
165; 235; 258; 255
106; 179; 183; 179
26; 70; 108; 117
0; 0; 5; 1
0; 0; 0; 0
0; 0; 0; 0
0; 0; 0; 0
0; 0; 0; 0
0; 0; 0; 0
7; 0; 0; 0
41; 38; 42; 53
99; 129; 138; 135
181; 235; 258; 249
247; 310; 286; 260
238; 319; 279; 250
210; 279; 252; 245
161; 231; 254; 239
94; 161; 164; 149
28; 68; 105; 135
0; 0; 1; 1
0; 0; 0; 0
0; 0; 0; 0
0; 0; 0; 0
0; 0; 0; 0
0; 0; 0; 0
12; 1; 0; 0
46; 49; 55; 70
108; 133; 129; 136
199; 256; 247; 246
248; 303; 274; 266
233; 304; 266; 254
211; 275; 251; 243
141; 203; 225; 246
80; 133; 159; 141
12; 33; 58; 81
0; 0; 0; 0
0; 0; 0; 0
0; 0; 0; 0
0; 0; 0; 0
0; 0; 0; 0
0; 0; 0; 0
11; 0; 0; 0
38; 37; 41; 46
103; 129; 129; 131
194; 249; 255; 245
244; 320; 296; 258
228; 310; 272; 252
209; 277; 254; 245
148; 211; 243; 235
81; 138; 133; 144
14; 37; 54; 74
0; 0; 0; 0
0; 0; 0; 0
0; 0; 0; 0
0; 0; 0; 0
0; 0; 0; 0
0; 0; 0; 0
9; 0; 0; 0
39; 40; 43; 53
93; 128; 127; 127
178; 242; 256; 250
243; 302; 269; 265
231; 309; 265; 260
214; 281; 257; 248
160; 232; 253; 232
99; 172; 178; 173
30; 75; 119; 128
0; 0; 5; 2
0; 0; 0; 0
0; 0; 0; 0
0; 0; 0; 0
0; 0; 0; 0
0; 0; 0; 0
8; 0; 0; 0
37; 33; 31; 32
96; 129; 132; 132
177; 241; 258; 246
246; 310; 289; 257
237; 316; 279; 250
211; 276; 251; 250
154; 225; 255; 258
101; 167; 173; 160
24; 66; 99; 131
0; 0; 1; 2
0; 0; 0; 0
0; 0; 0; 0
0; 0; 0; 0
0; 0; 0; 0
0; 0; 0; 0
11; 0; 0; 0
42; 45; 51; 66
101; 129; 131; 131
190; 244; 253; 245
250; 305; 279; 251
237; 313; 269; 255
213; 283; 258; 252
149; 218; 246; 247
82; 140; 131; 134
12; 36; 49; 63
0; 0; 0; 0
0; 0; 0; 0
0; 0; 0; 0
0; 0; 0; 0
0; 0; 0; 0
0; 0; 0; 0
8; 0; 0; 0
40; 40; 43; 54
93; 127; 134; 128
173; 231; 249; 258
246; 307; 283; 256
241; 291; 257; 252
216; 273; 251; 243
160; 225; 254; 254
103; 169; 173; 167
21; 62; 94; 122
0; 0; 1; 1
0; 0; 0; 0
0; 0; 0; 0
0; 0; 0; 0
0; 0; 0; 0
0; 0; 0; 0
7; 0; 0; 0
37; 35; 38; 48
91; 129; 130; 127
171; 229; 251; 252
245; 304; 280; 249
240; 289; 261; 249
212; 266; 259; 250
160; 227; 251; 234
95; 160; 160; 147
29; 69; 105; 129
0; 0; 0; 0
0; 0; 0; 0
0; 0; 0; 0
0; 0; 0; 0
0; 0; 0; 0
0; 0; 0; 0
5; 0; 0; 0
37; 36; 34; 43
86; 119; 134; 123
174; 230; 251; 238
246; 305; 280; 252
242; 291; 256; 250
218; 275; 253; 246
165; 235; 255; 251
101; 171; 168; 154
28; 70; 108; 114
0; 0; 4; 2
0; 0; 0; 0
0; 0; 0; 0
0; 0; 0; 0
0; 0; 0; 0
0; 0; 0; 0
8; 0; 0; 0
42; 43; 46; 60
102; 127; 132; 136
193; 250; 254; 252
248; 302; 270; 264
235; 306; 264; 256
211; 275; 250; 259
148; 213; 244; 237
85; 140; 138; 138
14; 40; 56; 77
0; 0; 0; 0
0; 0; 0; 0
0; 0; 0; 0
0; 0; 0; 0
0; 0; 0; 0
0; 0; 0; 0
3; 0; 0; 0
36; 32; 37; 43
91; 126; 125; 126
176; 234; 251; 238
245; 308; 283; 256
236; 311; 269; 255
210; 278; 254; 257
157; 228; 255; 233
99; 166; 170; 157
34; 75; 118; 130
0; 0; 6; 2
0; 0; 0; 0
0; 0; 0; 0
0; 0; 0; 0
0; 0; 0; 0
0; 0; 0; 0
5; 0; 0; 0
37; 34; 35; 41
87; 120; 134; 128
174; 232; 248; 254
246; 307; 280; 258
242; 290; 256; 249
213; 270; 256; 250
161; 227; 254; 258
106; 173; 180; 180
31; 74; 118; 127
0; 0; 8; 12
0; 0; 0; 0
0; 0; 0; 0
0; 0; 0; 0
0; 0; 0; 0
0; 0; 0; 0
10; 0; 0; 0
49; 54; 61; 83
116; 129; 126; 134
201; 253; 239; 244
248; 318; 292; 254
222; 300; 260; 253
205; 274; 251; 246
136; 195; 220; 244
68; 126; 144; 129
2; 19; 35; 45
0; 0; 0; 0
0; 0; 0; 0
0; 0; 0; 0
0; 0; 0; 0
0; 0; 0; 0
0; 0; 0; 0
14; 1; 0; 0
38; 40; 43; 52
104; 131; 131; 130
199; 252; 248; 251
247; 321; 298; 261
229; 312; 273; 254
210; 280; 257; 254
142; 206; 236; 247
78; 127; 152; 131
8; 25; 45; 53
0; 0; 0; 0
0; 0; 0; 0
0; 0; 0; 0
0; 0; 0; 0
0; 0; 0; 0
0; 0; 0; 0
2; 0; 0; 0
35; 34; 34; 42
86; 115; 127; 133
173; 225; 248; 254
242; 296; 269; 265
237; 310; 262; 252
216; 285; 257; 254
162; 236; 259; 247
105; 181; 194; 200
31; 79; 121; 131
0; 0; 7; 11
0; 0; 0; 0
0; 0; 0; 0
0; 0; 0; 0
0; 0; 0; 0
0; 0; 0; 0
14; 2; 0; 0
50; 54; 61; 82
110; 134; 127; 133
199; 252; 255; 254
251; 310; 276; 257
239; 312; 266; 252
216; 284; 257; 252
144; 210; 240; 231
81; 135; 161; 146
6; 25; 49; 64
0; 0; 0; 0
0; 0; 0; 0
0; 0; 0; 0
0; 0; 0; 0
0; 0; 0; 0
0; 0; 0; 0
13; 0; 0; 0
46; 48; 57; 72
102; 130; 126; 134
191; 250; 259; 246
244; 317; 299; 260
224; 301; 262; 257
203; 267; 258; 257
143; 207; 231; 256
78; 134; 157; 142
7; 28; 53; 67
0; 0; 0; 0
0; 0; 0; 0
0; 0; 0; 0
0; 0; 0; 0
0; 0; 0; 0
0; 0; 0; 0
4; 0; 0; 0
33; 28; 30; 28
87; 122; 131; 130
165; 227; 249; 257
245; 305; 280; 253
239; 318; 277; 249
217; 289; 252; 255
164; 238; 259; 243
108; 184; 196; 201
33; 85; 130; 131
0; 0; 8; 14
0; 0; 0; 0
0; 0; 0; 0
0; 0; 0; 0
0; 0; 0; 0
0; 0; 0; 0
13; 1; 0; 0
50; 54; 61; 82
112; 127; 134; 137
202; 256; 258; 252
253; 302; 270; 264
228; 301; 257; 245
207; 273; 248; 253
141; 202; 226; 245
77; 133; 137; 137
5; 27; 47; 64
0; 0; 0; 0
0; 0; 0; 0
0; 0; 0; 0
0; 0; 0; 0
0; 0; 0; 0
0; 0; 0; 0
11; 0; 0; 0
43; 48; 53; 73
103; 134; 131; 137
193; 251; 256; 252
244; 321; 289; 256
228; 311; 272; 255
203; 271; 256; 252
145; 209; 238; 228
80; 132; 158; 133
15; 38; 64; 87
0; 0; 0; 0
0; 0; 0; 0
0; 0; 0; 0
0; 0; 0; 0
0; 0; 0; 0
0; 0; 0; 0
6; 0; 0; 0
40; 39; 41; 52
96; 128; 129; 136
178; 241; 256; 247
245; 304; 272; 270
234; 308; 264; 255
209; 278; 254; 251
160; 232; 254; 241
93; 165; 163; 151
25; 64; 94; 124
0; 0; 3; 6
0; 0; 0; 0
0; 0; 0; 0
0; 0; 0; 0
0; 0; 0; 0
0; 0; 0; 0
2; 0; 0; 0
36; 32; 32; 38
82; 115; 118; 130
169; 230; 251; 255
240; 322; 296; 264
236; 318; 284; 260
218; 291; 256; 254
167; 247; 243; 248
108; 192; 195; 196
38; 91; 131; 130
0; 1; 12; 15
0; 0; 0; 0
0; 0; 0; 0
0; 0; 0; 0
0; 0; 0; 0
0; 0; 0; 0
18; 6; 0; 0
50; 53; 59; 75
118; 134; 135; 132
206; 254; 243; 256
248; 303; 264; 257
230; 300; 262; 256
213; 282; 259; 247
136; 197; 222; 243
69; 129; 151; 132
1; 20; 36; 43
0; 0; 0; 0
0; 0; 0; 0
0; 0; 0; 0
0; 0; 0; 0
0; 0; 0; 0
0; 0; 0; 0
9; 0; 0; 0
43; 41; 47; 58
94; 125; 137; 126
182; 238; 258; 248
250; 311; 289; 256
242; 291; 257; 253
216; 273; 251; 242
155; 216; 244; 248
99; 160; 159; 146
24; 57; 88; 121
0; 0; 0; 2
0; 0; 0; 0
0; 0; 0; 0
0; 0; 0; 0
0; 0; 0; 0
0; 0; 0; 0
9; 0; 0; 0
41; 39; 40; 48
90; 125; 123; 129
177; 238; 257; 250
243; 302; 277; 257
237; 311; 269; 255
211; 279; 257; 242
166; 239; 258; 248
101; 174; 170; 159
30; 73; 114; 124
0; 0; 1; 1
0; 0; 0; 0
0; 0; 0; 0
0; 0; 0; 0
0; 0; 0; 0
0; 0; 0; 0
13; 2; 0; 0
47; 50; 60; 77
110; 134; 132; 134
202; 252; 241; 245
249; 321; 300; 265
230; 312; 279; 251
211; 284; 260; 252
146; 215; 248; 241
83; 141; 141; 130
8; 32; 45; 59
0; 0; 0; 0
0; 0; 0; 0
0; 0; 0; 0
0; 0; 0; 0
0; 0; 0; 0
0; 0; 0; 0
8; 0; 0; 0
38; 37; 36; 46
89; 121; 136; 125
173; 232; 252; 239
247; 308; 282; 253
239; 318; 279; 251
211; 280; 255; 250
163; 236; 258; 252
100; 174; 172; 161
28; 73; 116; 123
0; 0; 3; 1
0; 0; 0; 0
0; 0; 0; 0
0; 0; 0; 0
0; 0; 0; 0
0; 0; 0; 0
12; 2; 0; 0
47; 51; 59; 76
108; 129; 139; 136
200; 250; 252; 259
245; 319; 288; 254
229; 310; 271; 259
202; 271; 249; 259
143; 203; 230; 247
75; 132; 133; 133
9; 32; 52; 69
0; 0; 0; 0
0; 0; 0; 0
0; 0; 0; 0
0; 0; 0; 0
0; 0; 0; 0
0; 0; 0; 0
7; 0; 0; 0
36; 33; 37; 46
90; 123; 133; 130
169; 224; 245; 257
242; 295; 265; 264
237; 309; 262; 250
215; 286; 255; 252
166; 242; 242; 254
106; 183; 184; 182
33; 81; 120; 120
0; 0; 3; 4
0; 0; 0; 0
0; 0; 0; 0
0; 0; 0; 0
0; 0; 0; 0
0; 0; 0; 0
13; 1; 0; 0
45; 50; 57; 75
107; 134; 130; 137
200; 258; 248; 247
249; 324; 302; 266
231; 313; 278; 251
205; 273; 255; 258
148; 211; 241; 232
82; 138; 134; 146
16; 39; 58; 80
0; 0; 0; 0
0; 0; 0; 0
0; 0; 0; 0
0; 0; 0; 0
0; 0; 0; 0
0; 0; 0; 0
12; 0; 0; 0
39; 41; 43; 50
96; 129; 131; 126
185; 242; 241; 239
245; 303; 274; 270
232; 305; 264; 254
208; 274; 251; 248
153; 220; 249; 255
92; 155; 152; 141
19; 51; 74; 99
0; 0; 0; 2
0; 0; 0; 0
0; 0; 0; 0
0; 0; 0; 0
0; 0; 0; 0
0; 0; 0; 0
1; 0; 0; 0
34; 34; 34; 43
90; 122; 131; 132
169; 221; 248; 249
247; 305; 287; 253
245; 293; 260; 247
219; 278; 261; 249
168; 233; 258; 254
114; 163; 162; 151
34; 65; 97; 127
0; 0; 2; 6
0; 0; 0; 0
0; 0; 0; 0
0; 0; 0; 0
0; 0; 0; 0
0; 0; 0; 0
6; 0; 0; 0
35; 28; 29; 29
90; 122; 128; 127
168; 220; 246; 245
246; 303; 281; 254
243; 293; 257; 253
213; 270; 258; 256
164; 229; 255; 235
108; 179; 188; 186
26; 71; 112; 121
0; 0; 5; 2
0; 0; 0; 0
0; 0; 0; 0
0; 0; 0; 0
0; 0; 0; 0
0; 0; 0; 0
7; 0; 0; 0
41; 38; 41; 52
100; 128; 131; 130
190; 246; 255; 245
245; 315; 291; 259
226; 303; 267; 254
204; 269; 259; 248
151; 216; 246; 247
87; 145; 136; 134
22; 51; 73; 102
0; 0; 0; 0
0; 0; 0; 0
0; 0; 0; 0
0; 0; 0; 0
0; 0; 0; 0
0; 0; 0; 0
6; 0; 0; 0
34; 31; 28; 31
94; 127; 128; 129
173; 229; 252; 259
247; 306; 285; 259
240; 290; 254; 256
214; 275; 250; 243
160; 232; 254; 241
103; 173; 179; 175
24; 63; 102; 127
0; 0; 4; 1
0; 0; 0; 0
0; 0; 0; 0
0; 0; 0; 0
0; 0; 0; 0
0; 0; 0; 0
10; 0; 0; 0
47; 51; 60; 78
106; 127; 129; 131
197; 249; 259; 249
250; 324; 305; 269
225; 306; 270; 255
208; 275; 253; 245
136; 197; 222; 244
74; 129; 130; 137
8; 31; 55; 80
0; 0; 0; 0
0; 0; 0; 0
0; 0; 0; 0
0; 0; 0; 0
0; 0; 0; 0
0; 0; 0; 0
7; 0; 0; 0
35; 29; 32; 29
95; 129; 129; 127
177; 239; 257; 242
244; 303; 277; 258
239; 313; 272; 262
215; 286; 255; 257
165; 240; 254; 250
106; 182; 179; 173
27; 70; 108; 115
0; 0; 2; 1
0; 0; 0; 0
0; 0; 0; 0
0; 0; 0; 0
0; 0; 0; 0
0; 0; 0; 0
14; 1; 0; 0
44; 44; 48; 55
104; 132; 127; 133
200; 258; 245; 254
246; 321; 296; 261
229; 310; 273; 250
205; 272; 258; 251
143; 210; 239; 227
81; 133; 164; 147
9; 27; 51; 68
0; 0; 0; 0
0; 0; 0; 0
0; 0; 0; 0
0; 0; 0; 0
0; 0; 0; 0
0; 0; 0; 0
1; 0; 0; 0
35; 33; 35; 43
90; 125; 133; 130
171; 227; 250; 256
247; 305; 280; 253
243; 293; 258; 245
217; 277; 253; 246
166; 235; 254; 251
104; 180; 181; 176
32; 78; 121; 131
0; 0; 13; 17
0; 0; 0; 0
0; 0; 0; 0
0; 0; 0; 0
0; 0; 0; 0
0; 0; 0; 0
22; 13; 4; 2
58; 75; 91; 121
128; 138; 130; 130
220; 259; 254; 261
246; 307; 270; 267
225; 299; 257; 254
204; 271; 253; 241
132; 176; 184; 181
61; 117; 128; 133
0; 13; 22; 26
0; 0; 0; 0
0; 0; 0; 0
0; 0; 0; 0
0; 0; 0; 0
0; 0; 0; 0
0; 0; 0; 0
23; 13; 9; 5
66; 75; 98; 132
128; 164; 159; 154
212; 265; 256; 260
239; 312; 274; 264
232; 307; 261; 248
208; 273; 251; 255
130; 175; 180; 187
60; 114; 122; 132
0; 17; 22; 31
0; 0; 0; 0
0; 0; 0; 0
0; 0; 0; 0
0; 0; 0; 0
0; 0; 0; 0
0; 0; 0; 0
26; 20; 17; 17
75; 100; 130; 130
147; 186; 201; 219
233; 305; 270; 268
241; 295; 257; 263
219; 280; 258; 255
181; 255; 248; 262
118; 173; 177; 170
49; 89; 126; 128
0; 1; 9; 7
0; 0; 0; 0
0; 0; 0; 0
0; 0; 0; 0
0; 0; 0; 0
0; 0; 0; 0
0; 0; 0; 0
25; 17; 12; 5
75; 97; 121; 120
139; 176; 181; 193
225; 291; 261; 250
241; 318; 281; 256
221; 298; 261; 248
185; 253; 252; 253
123; 180; 180; 182
53; 100; 131; 123
0; 1; 4; 1
0; 0; 0; 0
0; 0; 0; 0
0; 0; 0; 0
0; 0; 0; 0
0; 0; 0; 0
0; 0; 0; 0
25; 18; 9; 3
61; 79; 97; 127
138; 158; 156; 148
217; 270; 260; 256
242; 286; 261; 261
229; 291; 254; 253
200; 258; 249; 258
131; 183; 191; 193
65; 121; 137; 131
0; 12; 18; 22
0; 0; 0; 0
0; 0; 0; 0
0; 0; 0; 0
0; 0; 0; 0
0; 0; 0; 0
0; 0; 0; 0
28; 24; 19; 15
80; 108; 126; 127
167; 218; 246; 242
241; 295; 268; 266
242; 288; 258; 254
216; 275; 248; 251
169; 237; 255; 252
109; 187; 193; 193
40; 91; 131; 131
0; 1; 15; 17
0; 0; 0; 0
0; 0; 0; 0
0; 0; 0; 0
0; 0; 0; 0
0; 0; 0; 0
10; 0; 0; 0
46; 50; 57; 77
109; 134; 137; 131
201; 253; 242; 254
249; 301; 267; 258
232; 302; 257; 255
214; 281; 258; 248
143; 207; 237; 230
74; 132; 133; 136
11; 34; 53; 73
0; 0; 0; 0
0; 0; 0; 0
0; 0; 0; 0
0; 0; 0; 0
0; 0; 0; 0
0; 0; 0; 0
14; 3; 0; 0
46; 51; 61; 81
110; 129; 133; 131
204; 255; 242; 256
245; 314; 281; 257
228; 301; 261; 249
211; 279; 255; 254
143; 203; 232; 247
78; 132; 137; 130
12; 35; 55; 79
0; 0; 0; 0
0; 0; 0; 0
0; 0; 0; 0
0; 0; 0; 0
0; 0; 0; 0
0; 0; 0; 0
13; 3; 0; 0
46; 51; 58; 77
112; 129; 132; 133
207; 256; 248; 245
248; 323; 297; 258
229; 311; 271; 253
203; 275; 253; 257
140; 202; 226; 251
77; 130; 138; 135
13; 38; 64; 83
0; 0; 0; 0
0; 0; 0; 0
0; 0; 0; 0
0; 0; 0; 0
0; 0; 0; 0
0; 0; 0; 0
13; 3; 0; 0
47; 51; 58; 78
106; 129; 128; 133
198; 250; 253; 255
251; 328; 300; 267
228; 309; 269; 260
204; 270; 255; 250
142; 202; 226; 246
77; 130; 135; 135
7; 28; 50; 68
0; 0; 0; 0
0; 0; 0; 0
0; 0; 0; 0
0; 0; 0; 0
0; 0; 0; 0
0; 0; 0; 0
6; 0; 0; 0
39; 40; 39; 50
92; 130; 130; 129
177; 240; 259; 248
242; 304; 280; 256
237; 309; 266; 257
212; 278; 250; 252
161; 235; 258; 240
98; 169; 173; 155
32; 77; 120; 127
0; 0; 8; 11
0; 0; 0; 0
0; 0; 0; 0
0; 0; 0; 0
0; 0; 0; 0
0; 0; 0; 0
13; 1; 0; 0
44; 49; 59; 76
104; 130; 126; 134
197; 252; 256; 253
247; 320; 291; 255
229; 310; 268; 256
210; 281; 254; 250
138; 199; 221; 248
77; 130; 134; 152
10; 37; 51; 75
0; 0; 0; 0
0; 0; 0; 0
0; 0; 0; 0
0; 0; 0; 0
0; 0; 0; 0
0; 0; 0; 0
12; 0; 0; 0
45; 49; 58; 75
105; 129; 126; 131
194; 250; 258; 246
251; 328; 310; 271
226; 309; 273; 246
206; 276; 254; 246
145; 207; 236; 250
78; 133; 160; 147
9; 31; 59; 81
0; 0; 0; 0
0; 0; 0; 0
0; 0; 0; 0
0; 0; 0; 0
0; 0; 0; 0
0; 0; 0; 0
4; 0; 0; 0
40; 37; 39; 46
89; 118; 136; 131
174; 232; 249; 238
244; 300; 274; 263
236; 310; 263; 257
213; 280; 257; 243
167; 239; 249; 252
102; 175; 171; 160
27; 69; 103; 126
0; 0; 3; 1
0; 0; 0; 0
0; 0; 0; 0
0; 0; 0; 0
0; 0; 0; 0
0; 0; 0; 0
9; 0; 0; 0
38; 35; 35; 38
91; 127; 126; 126
175; 237; 255; 242
243; 301; 271; 265
239; 313; 269; 258
214; 283; 261; 250
154; 224; 256; 232
98; 167; 170; 160
29; 70; 110; 121
0; 0; 4; 3
0; 0; 0; 0
0; 0; 0; 0
0; 0; 0; 0
0; 0; 0; 0
0; 0; 0; 0
10; 0; 0; 0
46; 48; 54; 73
108; 134; 130; 130
199; 254; 252; 242
248; 298; 266; 257
231; 297; 261; 255
214; 277; 253; 250
150; 214; 241; 231
84; 141; 135; 136
11; 33; 48; 61
0; 0; 0; 0
0; 0; 0; 0
0; 0; 0; 0
0; 0; 0; 0
0; 0; 0; 0
0; 0; 0; 0
6; 0; 0; 0
35; 32; 34; 36
98; 127; 132; 127
176; 236; 257; 239
250; 311; 290; 255
241; 290; 258; 255
215; 274; 250; 244
160; 231; 251; 232
101; 168; 172; 165
27; 64; 101; 128
0; 0; 2; 0
0; 0; 0; 0
0; 0; 0; 0
0; 0; 0; 0
0; 0; 0; 0
0; 0; 0; 0
14; 4; 0; 0
44; 45; 51; 63
115; 130; 134; 132
203; 253; 253; 253
247; 320; 292; 255
230; 309; 271; 262
205; 271; 252; 253
139; 198; 220; 247
69; 130; 151; 133
1; 22; 37; 50
0; 0; 0; 0
0; 0; 0; 0
0; 0; 0; 0
0; 0; 0; 0
0; 0; 0; 0
0; 0; 0; 0
12; 0; 0; 0
47; 47; 56; 72
103; 131; 128; 129
193; 251; 261; 250
247; 320; 299; 263
225; 303; 261; 260
208; 276; 257; 245
146; 211; 242; 232
81; 139; 134; 146
14; 39; 57; 77
0; 0; 0; 0
0; 0; 0; 0
0; 0; 0; 0
0; 0; 0; 0
0; 0; 0; 0
0; 0; 0; 0
5; 0; 0; 0
32; 31; 29; 34
92; 130; 131; 127
171; 229; 253; 256
245; 306; 281; 253
237; 316; 278; 248
210; 277; 251; 249
154; 225; 252; 255
99; 165; 169; 156
29; 71; 110; 117
0; 0; 1; 1
0; 0; 0; 0
0; 0; 0; 0
0; 0; 0; 0
0; 0; 0; 0
0; 0; 0; 0
11; 0; 0; 0
45; 49; 57; 73
101; 130; 126; 126
196; 250; 249; 251
247; 303; 268; 261
235; 306; 263; 254
210; 274; 257; 248
143; 203; 233; 255
82; 137; 135; 133
15; 37; 60; 81
0; 0; 0; 0
0; 0; 0; 0
0; 0; 0; 0
0; 0; 0; 0
0; 0; 0; 0
0; 0; 0; 0
4; 0; 0; 0
36; 38; 36; 44
87; 122; 130; 124
177; 235; 254; 243
244; 300; 274; 266
240; 288; 258; 254
212; 266; 258; 256
159; 218; 247; 251
101; 164; 166; 158
28; 63; 97; 130
0; 0; 0; 2
0; 0; 0; 0
0; 0; 0; 0
0; 0; 0; 0
0; 0; 0; 0
0; 0; 0; 0
7; 0; 0; 0
32; 30; 28; 30
87; 118; 131; 124
176; 232; 256; 238
242; 300; 272; 263
240; 288; 256; 258
216; 272; 249; 241
165; 232; 254; 237
97; 167; 169; 156
30; 74; 112; 125
0; 0; 2; 1
0; 0; 0; 0
0; 0; 0; 0
0; 0; 0; 0
0; 0; 0; 0
0; 0; 0; 0
11; 0; 0; 0
44; 49; 54; 69
101; 133; 124; 131
194; 248; 258; 253
246; 321; 292; 257
229; 311; 272; 263
202; 271; 250; 252
145; 212; 241; 238
83; 140; 139; 132
9; 34; 50; 66
0; 0; 0; 0
0; 0; 0; 0
0; 0; 0; 0
0; 0; 0; 0
0; 0; 0; 0
0; 0; 0; 0
1; 0; 0; 0
34; 31; 35; 39
86; 118; 129; 130
162; 220; 246; 247
241; 299; 279; 250
235; 312; 268; 258
212; 279; 250; 257
166; 241; 253; 253
109; 187; 192; 195
38; 89; 129; 128
0; 0; 9; 2
0; 0; 0; 0
0; 0; 0; 0
0; 0; 0; 0
0; 0; 0; 0
0; 0; 0; 0
7; 0; 0; 0
37; 32; 33; 33
93; 127; 122; 129
170; 227; 245; 249
246; 304; 277; 254
236; 309; 261; 252
215; 284; 254; 248
166; 239; 249; 251
101; 174; 171; 158
29; 75; 115; 125
0; 0; 3; 2
0; 0; 0; 0
0; 0; 0; 0
0; 0; 0; 0
0; 0; 0; 0
0; 0; 0; 0
13; 0; 0; 0
47; 50; 60; 78
104; 134; 126; 132
193; 252; 259; 242
247; 300; 274; 265
237; 311; 269; 255
212; 277; 246; 249
146; 203; 228; 243
78; 127; 150; 130
15; 33; 57; 82
0; 0; 0; 0
0; 0; 0; 0
0; 0; 0; 0
0; 0; 0; 0
0; 0; 0; 0
0; 0; 0; 0
9; 0; 0; 0
37; 36; 36; 41
99; 130; 130; 130
178; 239; 259; 244
248; 312; 289; 258
237; 312; 272; 261
207; 276; 254; 255
152; 220; 246; 248
92; 156; 153; 133
27; 62; 92; 122
0; 0; 0; 0
0; 0; 0; 0
0; 0; 0; 0
0; 0; 0; 0
0; 0; 0; 0
0; 0; 0; 0
6; 0; 0; 0
33; 29; 25; 27
88; 121; 134; 130
166; 218; 243; 240
245; 302; 279; 251
241; 290; 257; 247
217; 275; 253; 242
166; 234; 257; 254
105; 180; 179; 177
26; 70; 108; 118
0; 0; 1; 0
0; 0; 0; 0
0; 0; 0; 0
0; 0; 0; 0
0; 0; 0; 0
0; 0; 0; 0
13; 0; 0; 0
40; 40; 42; 50
106; 133; 130; 136
193; 252; 256; 251
245; 318; 291; 263
223; 301; 265; 256
201; 266; 263; 245
142; 203; 231; 247
75; 130; 131; 134
12; 37; 51; 72
0; 0; 0; 0
0; 0; 0; 0
0; 0; 0; 0
0; 0; 0; 0
0; 0; 0; 0
0; 0; 0; 0
12; 0; 0; 0
46; 47; 56; 72
103; 130; 127; 134
195; 253; 258; 250
249; 310; 280; 248
234; 306; 266; 255
211; 275; 253; 244
147; 206; 234; 254
83; 138; 134; 146
16; 39; 56; 81
0; 0; 0; 0
0; 0; 0; 0
0; 0; 0; 0
0; 0; 0; 0
0; 0; 0; 0
0; 0; 0; 0
11; 0; 0; 0
44; 49; 52; 69
103; 130; 121; 129
198; 252; 240; 246
244; 313; 288; 257
223; 301; 261; 245
207; 274; 251; 245
146; 207; 237; 226
81; 135; 163; 146
11; 28; 56; 70
0; 0; 0; 0
0; 0; 0; 0
0; 0; 0; 0
0; 0; 0; 0
0; 0; 0; 0
0; 0; 0; 0
10; 0; 0; 0
44; 47; 52; 67
104; 134; 128; 138
199; 256; 245; 247
248; 324; 301; 262
229; 312; 278; 249
205; 274; 249; 251
146; 209; 238; 227
85; 139; 137; 147
17; 41; 60; 85
0; 0; 0; 0
0; 0; 0; 0
0; 0; 0; 0
0; 0; 0; 0
0; 0; 0; 0
0; 0; 0; 0
10; 0; 0; 0
41; 37; 38; 47
103; 128; 138; 136
195; 248; 258; 253
248; 302; 268; 262
241; 285; 253; 258
216; 273; 255; 241
151; 213; 241; 232
87; 143; 141; 131
18; 43; 65; 91
0; 0; 0; 0
0; 0; 0; 0
0; 0; 0; 0
0; 0; 0; 0
0; 0; 0; 0
0; 0; 0; 0
6; 0; 0; 0
40; 39; 39; 51
99; 130; 128; 135
182; 244; 246; 246
245; 324; 307; 269
227; 309; 271; 260
208; 279; 255; 252
154; 222; 247; 251
98; 164; 166; 157
29; 69; 107; 120
0; 0; 3; 6
0; 0; 0; 0
0; 0; 0; 0
0; 0; 0; 0
0; 0; 0; 0
0; 0; 0; 0
9; 0; 0; 0
40; 41; 43; 52
98; 126; 131; 130
178; 233; 251; 243
250; 310; 283; 255
242; 291; 257; 254
216; 275; 254; 250
165; 232; 257; 246
103; 173; 182; 183
30; 71; 117; 133
0; 0; 5; 2
0; 0; 0; 0
0; 0; 0; 0
0; 0; 0; 0
0; 0; 0; 0
0; 0; 0; 0
8; 0; 0; 0
39; 36; 39; 41
98; 124; 136; 131
184; 240; 259; 245
247; 310; 288; 256
242; 289; 255; 255
216; 272; 249; 249
157; 214; 245; 247
96; 157; 161; 153
27; 61; 95; 131
0; 0; 1; 1
0; 0; 0; 0
0; 0; 0; 0
0; 0; 0; 0
0; 0; 0; 0
0; 0; 0; 0
11; 0; 0; 0
43; 45; 54; 71
100; 127; 131; 131
190; 249; 243; 248
248; 306; 275; 256
237; 314; 271; 256
213; 285; 258; 249
145; 213; 247; 240
86; 144; 147; 138
14; 37; 53; 77
0; 0; 0; 0
0; 0; 0; 0
0; 0; 0; 0
0; 0; 0; 0
0; 0; 0; 0
0; 0; 0; 0
7; 0; 0; 0
34; 31; 32; 32
94; 128; 123; 131
172; 227; 250; 254
242; 297; 268; 268
240; 286; 253; 262
214; 273; 247; 253
161; 231; 254; 238
96; 162; 162; 149
25; 65; 94; 124
0; 0; 3; 4
0; 0; 0; 0
0; 0; 0; 0
0; 0; 0; 0
0; 0; 0; 0
0; 0; 0; 0
2; 0; 0; 0
34; 32; 33; 38
84; 114; 118; 130
170; 229; 250; 252
238; 324; 296; 264
237; 319; 284; 259
219; 293; 256; 256
169; 250; 246; 253
109; 193; 200; 204
36; 90; 128; 138
0; 0; 2; 2
0; 0; 0; 0
0; 0; 0; 0
0; 0; 0; 0
0; 0; 0; 0
0; 0; 0; 0
7; 0; 0; 0
35; 38; 39; 51
90; 129; 130; 128
170; 228; 251; 251
245; 305; 279; 249
237; 315; 274; 250
213; 285; 262; 251
160; 232; 255; 251
102; 175; 177; 169
25; 67; 103; 129
0; 0; 3; 2
0; 0; 0; 0
0; 0; 0; 0
0; 0; 0; 0
0; 0; 0; 0
0; 0; 0; 0
8; 0; 0; 0
41; 39; 45; 59
101; 130; 139; 130
190; 249; 245; 250
245; 325; 299; 267
227; 308; 267; 256
203; 270; 253; 256
147; 212; 243; 247
79; 134; 164; 153
15; 39; 68; 101
0; 0; 0; 0
0; 0; 0; 0
0; 0; 0; 0
0; 0; 0; 0
0; 0; 0; 0
0; 0; 0; 0
14; 0; 0; 0
48; 51; 58; 76
104; 127; 132; 134
196; 247; 258; 250
251; 327; 306; 269
223; 301; 267; 250
208; 276; 256; 254
139; 207; 238; 231
80; 132; 158; 140
10; 33; 58; 79
0; 0; 0; 0
0; 0; 0; 0
0; 0; 0; 0
0; 0; 0; 0
0; 0; 0; 0
0; 0; 0; 0
8; 0; 0; 0
45; 40; 45; 58
102; 127; 136; 131
193; 249; 261; 245
246; 316; 293; 258
223; 300; 266; 251
205; 272; 254; 249
143; 207; 238; 252
79; 131; 159; 143
11; 32; 57; 77
0; 0; 0; 0
0; 0; 0; 0
0; 0; 0; 0
0; 0; 0; 0
0; 0; 0; 0
0; 0; 0; 0
7; 0; 0; 0
34; 31; 32; 28
90; 122; 130; 130
171; 222; 243; 251
247; 303; 276; 258
242; 291; 256; 251
213; 270; 255; 250
162; 227; 250; 257
103; 173; 179; 178
28; 66; 105; 131
0; 0; 6; 2
0; 0; 0; 0
0; 0; 0; 0
0; 0; 0; 0
0; 0; 0; 0
0; 0; 0; 0
10; 0; 0; 0
43; 48; 54; 69
105; 130; 127; 138
196; 252; 254; 256
248; 304; 266; 264
233; 302; 259; 255
215; 281; 257; 247
150; 213; 242; 246
79; 133; 152; 128
10; 31; 51; 61
0; 0; 0; 0
0; 0; 0; 0
0; 0; 0; 0
0; 0; 0; 0
0; 0; 0; 0
0; 0; 0; 0
10; 0; 0; 0
39; 40; 41; 50
104; 131; 127; 132
198; 253; 245; 242
249; 304; 274; 262
237; 307; 265; 248
213; 279; 256; 250
150; 216; 242; 247
81; 137; 130; 133
11; 32; 50; 68
0; 0; 0; 0
0; 0; 0; 0
0; 0; 0; 0
0; 0; 0; 0
0; 0; 0; 0
0; 0; 0; 0
7; 0; 0; 0
39; 39; 41; 51
93; 126; 127; 128
178; 240; 259; 243
239; 328; 305; 267
233; 314; 282; 252
213; 286; 249; 255
157; 233; 254; 238
101; 172; 179; 176
21; 58; 93; 125
0; 0; 1; 1
0; 0; 0; 0
0; 0; 0; 0
0; 0; 0; 0
0; 0; 0; 0
0; 0; 0; 0
11; 0; 0; 0
47; 50; 57; 73
104; 132; 122; 130
197; 252; 242; 242
249; 305; 276; 253
233; 306; 265; 253
208; 274; 259; 250
147; 213; 247; 247
78; 134; 159; 150
11; 35; 61; 91
0; 0; 0; 0
0; 0; 0; 0
0; 0; 0; 0
0; 0; 0; 0
0; 0; 0; 0
0; 0; 0; 0
9; 0; 0; 0
41; 41; 43; 57
93; 128; 124; 127
179; 243; 239; 233
249; 313; 289; 262
237; 313; 274; 263
212; 279; 253; 247
160; 235; 259; 240
94; 166; 168; 153
25; 66; 103; 132
0; 0; 3; 5
0; 0; 0; 0
0; 0; 0; 0
0; 0; 0; 0
0; 0; 0; 0
0; 0; 0; 0
7; 0; 0; 0
37; 33; 33; 35
87; 119; 134; 124
174; 233; 251; 238
246; 305; 282; 254
240; 290; 261; 249
215; 275; 251; 241
164; 233; 259; 242
95; 165; 168; 160
28; 64; 101; 129
0; 0; 2; 5
0; 0; 0; 0
0; 0; 0; 0
0; 0; 0; 0
0; 0; 0; 0
0; 0; 0; 0
7; 0; 0; 0
33; 33; 31; 34
91; 129; 128; 130
177; 237; 258; 244
243; 302; 277; 257
237; 311; 267; 259
210; 277; 254; 256
158; 228; 247; 252
100; 171; 176; 173
28; 68; 107; 119
0; 0; 3; 3
0; 0; 0; 0
0; 0; 0; 0
0; 0; 0; 0
0; 0; 0; 0
0; 0; 0; 0
15; 1; 0; 0
50; 53; 60; 82
108; 130; 131; 132
204; 252; 242; 252
245; 312; 279; 261
228; 300; 263; 258
209; 278; 258; 249
137; 197; 220; 246
75; 134; 136; 137
7; 32; 55; 74
0; 0; 0; 0
0; 0; 0; 0
0; 0; 0; 0
0; 0; 0; 0
0; 0; 0; 0
0; 0; 0; 0
8; 0; 0; 0
34; 31; 28; 31
92; 126; 124; 130
177; 237; 254; 247
246; 310; 288; 255
239; 290; 256; 253
216; 275; 253; 247
161; 233; 256; 243
93; 161; 163; 152
26; 62; 90; 128
0; 0; 1; 1
0; 0; 0; 0
0; 0; 0; 0
0; 0; 0; 0
0; 0; 0; 0
0; 0; 0; 0
5; 0; 0; 0
36; 32; 34; 40
88; 119; 136; 127
167; 222; 242; 248
241; 295; 264; 255
242; 289; 259; 259
213; 270; 255; 254
164; 228; 251; 234
107; 182; 190; 188
34; 83; 126; 133
0; 0; 5; 2
0; 0; 0; 0
0; 0; 0; 0
0; 0; 0; 0
0; 0; 0; 0
0; 0; 0; 0
5; 0; 0; 0
37; 34; 36; 42
89; 121; 136; 124
175; 233; 251; 239
246; 309; 283; 255
241; 293; 257; 253
215; 275; 251; 246
162; 232; 257; 244
106; 176; 185; 188
32; 74; 120; 132
0; 0; 8; 15
0; 0; 0; 0
0; 0; 0; 0
0; 0; 0; 0
0; 0; 0; 0
0; 0; 0; 0
14; 3; 0; 0
48; 57; 65; 86
112; 127; 133; 134
206; 253; 242; 254
249; 300; 262; 253
238; 310; 266; 254
217; 286; 255; 252
144; 207; 241; 232
77; 129; 156; 138
9; 27; 46; 65
0; 0; 0; 0
0; 0; 0; 0
0; 0; 0; 0
0; 0; 0; 0
0; 0; 0; 0
0; 0; 0; 0
15; 2; 0; 0
41; 42; 46; 53
108; 132; 127; 134
200; 257; 248; 251
246; 302; 270; 267
231; 303; 259; 246
215; 282; 261; 249
144; 206; 237; 251
78; 132; 157; 134
12; 34; 60; 81
0; 0; 0; 0
0; 0; 0; 0
0; 0; 0; 0
0; 0; 0; 0
0; 0; 0; 0
0; 0; 0; 0
9; 1; 0; 0
38; 35; 35; 36
92; 124; 125; 124
175; 233; 250; 262
247; 309; 284; 260
239; 290; 256; 250
212; 266; 262; 250
155; 213; 247; 241
100; 159; 169; 159
20; 50; 80; 112
0; 0; 0; 1
0; 0; 0; 0
0; 0; 0; 0
0; 0; 0; 0
0; 0; 0; 0
0; 0; 0; 0
10; 1; 0; 0
41; 39; 41; 46
102; 127; 130; 129
192; 250; 259; 250
247; 300; 273; 267
233; 303; 264; 252
209; 273; 257; 248
147; 210; 243; 237
82; 139; 134; 147
12; 38; 54; 78
0; 0; 0; 0
0; 0; 0; 0
0; 0; 0; 0
0; 0; 0; 0
0; 0; 0; 0
0; 0; 0; 0
3; 0; 0; 0
40; 38; 43; 51
92; 126; 125; 127
173; 232; 248; 260
245; 305; 279; 253
241; 290; 255; 258
217; 273; 250; 249
159; 220; 248; 254
100; 165; 165; 157
18; 53; 79; 115
0; 0; 0; 3
0; 0; 0; 0
0; 0; 0; 0
0; 0; 0; 0
0; 0; 0; 0
0; 0; 0; 0
5; 0; 0; 0
40; 41; 42; 51
99; 129; 136; 130
179; 236; 257; 246
245; 321; 301; 265
229; 314; 279; 246
209; 276; 256; 251
153; 222; 251; 252
90; 158; 154; 137
25; 62; 95; 124
0; 0; 3; 4
0; 0; 0; 0
0; 0; 0; 0
0; 0; 0; 0
0; 0; 0; 0
0; 0; 0; 0
5; 0; 0; 0
34; 28; 29; 28
90; 122; 136; 130
174; 227; 253; 256
243; 299; 271; 264
236; 310; 261; 253
216; 287; 259; 247
166; 245; 242; 255
103; 184; 185; 184
26; 76; 117; 124
0; 0; 8; 7
0; 0; 0; 0
0; 0; 0; 0
0; 0; 0; 0
0; 0; 0; 0
0; 0; 0; 0
13; 0; 0; 0
41; 37; 42; 50
103; 132; 130; 127
199; 251; 249; 248
249; 302; 269; 261
241; 285; 254; 254
210; 266; 253; 258
153; 205; 234; 249
85; 140; 133; 147
10; 31; 43; 60
0; 0; 0; 0
0; 0; 0; 0
0; 0; 0; 0
0; 0; 0; 0
0; 0; 0; 0
0; 0; 0; 0
13; 0; 0; 0
45; 47; 57; 72
103; 128; 130; 130
192; 250; 252; 244
248; 322; 299; 269
233; 313; 282; 256
203; 273; 256; 248
145; 208; 239; 232
78; 130; 152; 132
7; 27; 46; 58
0; 0; 0; 0
0; 0; 0; 0
0; 0; 0; 0
0; 0; 0; 0
0; 0; 0; 0
0; 0; 0; 0
3; 0; 0; 0
32; 27; 25; 28
89; 123; 131; 127
170; 233; 250; 237
241; 300; 275; 263
234; 312; 267; 257
212; 280; 257; 246
167; 243; 242; 252
108; 184; 187; 186
37; 87; 130; 128
0; 0; 12; 16
0; 0; 0; 0
0; 0; 0; 0
0; 0; 0; 0
0; 0; 0; 0
0; 0; 0; 0
14; 2; 0; 0
46; 49; 57; 68
112; 129; 128; 130
205; 256; 246; 247
247; 300; 268; 266
232; 300; 257; 264
210; 274; 254; 259
136; 189; 207; 224
68; 123; 137; 129
0; 13; 27; 32
0; 0; 0; 0
0; 0; 0; 0
0; 0; 0; 0
0; 0; 0; 0
0; 0; 0; 0
0; 0; 0; 0
13; 1; 0; 0
47; 51; 60; 81
110; 134; 134; 136
203; 255; 244; 242
250; 303; 274; 260
236; 306; 266; 255
213; 280; 258; 255
147; 211; 245; 238
77; 132; 157; 141
13; 32; 61; 81
0; 0; 0; 0
0; 0; 0; 0
0; 0; 0; 0
0; 0; 0; 0
0; 0; 0; 0
0; 0; 0; 0
12; 1; 0; 0
46; 49; 53; 72
105; 127; 132; 130
199; 250; 255; 248
247; 319; 297; 261
226; 302; 261; 263
209; 277; 249; 249
144; 206; 231; 247
77; 129; 154; 138
12; 30; 53; 74
0; 0; 0; 0
0; 0; 0; 0
0; 0; 0; 0
0; 0; 0; 0
0; 0; 0; 0
0; 0; 0; 0
8; 0; 0; 0
37; 36; 36; 43
100; 131; 137; 131
194; 253; 257; 248
245; 319; 298; 255
222; 299; 266; 249
204; 273; 254; 249
139; 203; 232; 253
80; 135; 160; 146
14; 37; 65; 91
0; 0; 0; 0
0; 0; 0; 0
0; 0; 0; 0
0; 0; 0; 0
0; 0; 0; 0
0; 0; 0; 0
3; 0; 0; 0
35; 35; 35; 44
85; 119; 133; 121
168; 221; 249; 248
246; 303; 284; 258
241; 288; 256; 252
212; 267; 262; 255
161; 220; 250; 251
103; 169; 173; 165
28; 62; 96; 124
0; 0; 3; 1
0; 0; 0; 0
0; 0; 0; 0
0; 0; 0; 0
0; 0; 0; 0
0; 0; 0; 0
9; 0; 0; 0
34; 31; 28; 32
91; 123; 132; 127
175; 230; 249; 237
242; 300; 273; 271
232; 307; 267; 256
208; 275; 261; 246
160; 232; 262; 245
103; 175; 183; 178
26; 67; 108; 117
0; 0; 3; 2
0; 0; 0; 0
0; 0; 0; 0
0; 0; 0; 0
0; 0; 0; 0
0; 0; 0; 0
11; 0; 0; 0
46; 49; 56; 73
108; 131; 133; 131
200; 250; 249; 252
249; 325; 294; 260
228; 308; 268; 256
208; 279; 253; 245
137; 198; 221; 247
78; 135; 134; 153
8; 32; 44; 60
0; 0; 0; 0
0; 0; 0; 0
0; 0; 0; 0
0; 0; 0; 0
0; 0; 0; 0
0; 0; 0; 0
7; 0; 0; 0
39; 39; 43; 52
93; 129; 130; 132
177; 236; 255; 241
248; 310; 290; 256
241; 288; 254; 260
210; 267; 260; 257
158; 221; 249; 254
97; 161; 159; 144
27; 65; 91; 125
0; 0; 1; 1
0; 0; 0; 0
0; 0; 0; 0
0; 0; 0; 0
0; 0; 0; 0
0; 0; 0; 0
0; 0; 0; 0
30; 23; 18; 16
78; 108; 123; 128
166; 218; 240; 236
244; 299; 274; 257
242; 292; 255; 256
219; 278; 255; 252
171; 245; 246; 253
105; 185; 184; 181
38; 90; 133; 131
0; 0; 9; 7
0; 0; 0; 0
0; 0; 0; 0
0; 0; 0; 0
0; 0; 0; 0
0; 0; 0; 0
8; 0; 0; 0
38; 37; 39; 47
85; 117; 134; 121
171; 227; 250; 257
242; 297; 271; 263
236; 309; 262; 257
210; 276; 250; 259
165; 237; 257; 254
105; 182; 182; 179
27; 70; 110; 124
0; 0; 7; 6
0; 0; 0; 0
0; 0; 0; 0
0; 0; 0; 0
0; 0; 0; 0
0; 0; 0; 0
12; 0; 0; 0
44; 41; 43; 51
109; 130; 129; 136
200; 257; 246; 254
246; 323; 296; 261
229; 313; 273; 254
206; 278; 254; 248
138; 203; 225; 247
82; 133; 158; 141
12; 34; 61; 86
0; 0; 0; 0
0; 0; 0; 0
0; 0; 0; 0
0; 0; 0; 0
0; 0; 0; 0
0; 0; 0; 0
7; 0; 0; 0
39; 40; 42; 54
93; 125; 123; 128
182; 243; 241; 242
244; 323; 301; 260
232; 316; 281; 248
211; 282; 256; 262
153; 224; 250; 260
93; 159; 158; 144
28; 64; 100; 130
0; 0; 0; 1
0; 0; 0; 0
0; 0; 0; 0
0; 0; 0; 0
0; 0; 0; 0
0; 0; 0; 0
5; 0; 0; 0
33; 31; 28; 33
93; 123; 130; 127
179; 237; 258; 242
244; 300; 274; 262
232; 308; 267; 251
215; 283; 258; 255
160; 236; 254; 241
101; 173; 179; 167
28; 69; 110; 120
0; 0; 5; 4
0; 0; 0; 0
0; 0; 0; 0
0; 0; 0; 0
0; 0; 0; 0
0; 0; 0; 0
17; 4; 0; 0
43; 47; 53; 65
110; 135; 133; 136
198; 254; 255; 251
246; 318; 288; 259
229; 307; 268; 256
205; 271; 257; 251
130; 213; 233; 245
75; 134; 159; 141
5; 29; 56; 77
0; 0; 0; 0
0; 0; 0; 0
0; 0; 0; 0
0; 0; 0; 0
0; 0; 0; 0
0; 0; 0; 0
13; 0; 0; 0
44; 47; 52; 67
104; 134; 132; 136
196; 253; 242; 253
248; 304; 269; 263
232; 304; 259; 246
213; 282; 259; 248
149; 217; 245; 245
85; 144; 137; 129
10; 38; 52; 68
0; 0; 0; 0
0; 0; 0; 0
0; 0; 0; 0
0; 0; 0; 0
0; 0; 0; 0
0; 0; 0; 0
3; 0; 0; 0
37; 38; 40; 51
93; 126; 133; 135
177; 236; 257; 241
242; 302; 277; 257
236; 310; 266; 255
212; 276; 246; 259
160; 227; 256; 230
102; 170; 177; 168
31; 69; 111; 120
0; 0; 1; 0
0; 0; 0; 0
0; 0; 0; 0
0; 0; 0; 0
0; 0; 0; 0
0; 0; 0; 0
13; 1; 0; 0
49; 53; 59; 80
109; 129; 132; 130
199; 252; 258; 252
247; 318; 289; 253
225; 301; 265; 247
206; 270; 259; 243
139; 200; 228; 247
73; 129; 130; 133
3; 27; 43; 57
0; 0; 0; 0
0; 0; 0; 0
0; 0; 0; 0
0; 0; 0; 0
0; 0; 0; 0
0; 0; 0; 0
10; 0; 0; 0
40; 44; 52; 65
95; 127; 133; 129
183; 241; 256; 248
245; 303; 271; 267
237; 309; 262; 249
210; 275; 251; 259
157; 225; 254; 230
94; 155; 154; 136
26; 62; 91; 129
0; 0; 0; 1
0; 0; 0; 0
0; 0; 0; 0
0; 0; 0; 0
0; 0; 0; 0
0; 0; 0; 0
9; 0; 0; 0
39; 38; 43; 52
88; 122; 130; 127
171; 227; 251; 258
248; 305; 282; 253
240; 290; 255; 263
212; 267; 259; 250
160; 220; 247; 248
100; 161; 160; 144
19; 53; 80; 109
0; 0; 0; 3
0; 0; 0; 0
0; 0; 0; 0
0; 0; 0; 0
0; 0; 0; 0
0; 0; 0; 0
6; 0; 0; 0
40; 37; 39; 46
92; 125; 123; 128
177; 234; 253; 242
242; 300; 273; 267
239; 289; 259; 263
213; 273; 248; 256
159; 225; 250; 252
102; 169; 174; 167
24; 60; 96; 126
0; 0; 1; 2
0; 0; 0; 0
0; 0; 0; 0
0; 0; 0; 0
0; 0; 0; 0
0; 0; 0; 0
6; 0; 0; 0
39; 37; 41; 49
89; 124; 129; 125
177; 235; 254; 243
247; 306; 285; 258
242; 291; 257; 246
217; 276; 254; 251
165; 234; 254; 254
104; 177; 177; 172
30; 74; 120; 128
0; 0; 3; 3
0; 0; 0; 0
0; 0; 0; 0
0; 0; 0; 0
0; 0; 0; 0
0; 0; 0; 0
12; 1; 0; 0
46; 50; 58; 75
109; 131; 134; 134
199; 251; 251; 254
249; 301; 268; 262
240; 285; 253; 255
215; 272; 250; 253
148; 206; 234; 247
84; 135; 160; 143
10; 29; 49; 69
0; 0; 0; 0
0; 0; 0; 0
0; 0; 0; 0
0; 0; 0; 0
0; 0; 0; 0
0; 0; 0; 0
14; 2; 0; 0
35; 38; 38; 48
96; 128; 131; 126
186; 245; 242; 241
249; 309; 288; 260
237; 316; 274; 252
215; 285; 255; 253
155; 224; 246; 250
91; 155; 150; 134
22; 58; 82; 113
0; 0; 0; 2
0; 0; 0; 0
0; 0; 0; 0
0; 0; 0; 0
0; 0; 0; 0
0; 0; 0; 0
12; 1; 0; 0
39; 40; 43; 53
107; 134; 131; 131
199; 256; 246; 256
246; 321; 292; 256
229; 311; 271; 254
205; 271; 253; 249
145; 209; 238; 226
79; 134; 160; 142
15; 35; 65; 87
0; 0; 0; 0
0; 0; 0; 0
0; 0; 0; 0
0; 0; 0; 0
0; 0; 0; 0
0; 0; 0; 0
16; 1; 0; 0
46; 51; 61; 77
105; 126; 127; 127
201; 251; 258; 253
244; 313; 282; 257
224; 300; 259; 250
204; 274; 249; 245
143; 204; 232; 247
75; 126; 143; 133
12; 29; 52; 73
0; 0; 0; 0
0; 0; 0; 0
0; 0; 0; 0
0; 0; 0; 0
0; 0; 0; 0
0; 0; 0; 0
12; 1; 0; 0
44; 47; 55; 73
103; 130; 127; 135
196; 253; 259; 251
247; 321; 293; 258
230; 313; 273; 250
205; 275; 247; 257
142; 201; 224; 248
81; 134; 157; 141
11; 27; 51; 64
0; 0; 0; 0
0; 0; 0; 0
0; 0; 0; 0
0; 0; 0; 0
0; 0; 0; 0
0; 0; 0; 0
11; 0; 0; 0
40; 41; 44; 51
106; 133; 130; 130
199; 253; 250; 244
248; 303; 274; 268
239; 315; 272; 258
217; 285; 256; 255
149; 216; 244; 237
82; 137; 132; 141
10; 32; 44; 62
0; 0; 0; 0
0; 0; 0; 0
0; 0; 0; 0
0; 0; 0; 0
0; 0; 0; 0
0; 0; 0; 0
14; 1; 0; 0
42; 41; 48; 56
108; 130; 131; 131
198; 253; 249; 252
248; 323; 299; 263
229; 311; 277; 248
205; 275; 247; 249
142; 200; 227; 244
76; 127; 145; 129
10; 26; 44; 59
0; 0; 0; 0
0; 0; 0; 0
0; 0; 0; 0
0; 0; 0; 0
0; 0; 0; 0
0; 0; 0; 0
7; 0; 0; 0
42; 40; 43; 53
102; 130; 136; 130
190; 248; 255; 248
249; 321; 302; 263
228; 307; 269; 249
210; 279; 254; 242
151; 220; 246; 255
86; 148; 137; 141
21; 50; 74; 109
0; 0; 0; 1
0; 0; 0; 0
0; 0; 0; 0
0; 0; 0; 0
0; 0; 0; 0
0; 0; 0; 0
11; 0; 0; 0
43; 41; 43; 50
105; 134; 130; 137
192; 250; 260; 243
245; 300; 269; 262
232; 302; 260; 254
213; 280; 255; 254
149; 216; 244; 255
82; 137; 131; 137
11; 32; 54; 73
0; 0; 0; 0
0; 0; 0; 0
0; 0; 0; 0
0; 0; 0; 0
0; 0; 0; 0
0; 0; 0; 0
13; 0; 0; 0
40; 38; 42; 50
106; 132; 127; 129
197; 251; 243; 248
249; 303; 274; 267
232; 304; 260; 252
214; 284; 255; 256
153; 220; 248; 239
89; 150; 153; 137
19; 50; 74; 103
0; 0; 0; 0
0; 0; 0; 0
0; 0; 0; 0
0; 0; 0; 0
0; 0; 0; 0
0; 0; 0; 0
11; 0; 0; 0
38; 42; 43; 53
108; 131; 131; 131
200; 257; 246; 255
249; 310; 279; 249
232; 303; 264; 253
215; 283; 257; 255
147; 210; 231; 254
75; 128; 146; 131
12; 28; 52; 73
0; 0; 0; 0
0; 0; 0; 0
0; 0; 0; 0
0; 0; 0; 0
0; 0; 0; 0
0; 0; 0; 0
16; 1; 0; 0
49; 54; 59; 80
115; 127; 134; 136
202; 256; 258; 249
247; 321; 289; 262
229; 310; 268; 255
208; 280; 255; 247
143; 206; 231; 248
76; 130; 153; 135
3; 21; 37; 50
0; 0; 0; 0
0; 0; 0; 0
0; 0; 0; 0
0; 0; 0; 0
0; 0; 0; 0
0; 0; 0; 0
8; 0; 0; 0
40; 40; 42; 52
95; 127; 126; 132
172; 230; 256; 230
243; 300; 275; 269
232; 308; 262; 250
213; 284; 255; 249
158; 234; 255; 246
93; 164; 158; 141
32; 72; 108; 118
0; 0; 5; 5
0; 0; 0; 0
0; 0; 0; 0
0; 0; 0; 0
0; 0; 0; 0
0; 0; 0; 0
9; 0; 0; 0
39; 38; 39; 50
95; 127; 133; 131
173; 231; 255; 259
247; 308; 283; 260
240; 317; 278; 249
212; 283; 258; 249
164; 236; 258; 249
102; 177; 179; 175
25; 68; 103; 131
0; 0; 3; 2
0; 0; 0; 0
0; 0; 0; 0
0; 0; 0; 0
0; 0; 0; 0
0; 0; 0; 0
11; 0; 0; 0
49; 50; 57; 77
110; 134; 133; 133
202; 252; 242; 246
252; 329; 307; 273
228; 309; 272; 245
203; 271; 252; 259
144; 202; 229; 252
74; 130; 132; 130
5; 31; 50; 67
0; 0; 0; 0
0; 0; 0; 0
0; 0; 0; 0
0; 0; 0; 0
0; 0; 0; 0
0; 0; 0; 0
7; 0; 0; 0
33; 30; 27; 31
91; 125; 131; 131
171; 226; 250; 255
247; 307; 281; 255
239; 316; 276; 253
215; 285; 258; 258
163; 235; 259; 248
100; 173; 177; 173
29; 72; 114; 131
0; 0; 4; 2
0; 0; 0; 0
0; 0; 0; 0
0; 0; 0; 0
0; 0; 0; 0
0; 0; 0; 0
9; 0; 0; 0
38; 36; 39; 42
95; 123; 134; 127
183; 237; 254; 247
246; 306; 283; 259
240; 281; 253; 251
216; 272; 253; 252
160; 225; 255; 231
100; 163; 163; 148
24; 58; 87; 119
0; 0; 0; 0
0; 0; 0; 0
0; 0; 0; 0
0; 0; 0; 0
0; 0; 0; 0
0; 0; 0; 0
5; 0; 0; 0
40; 40; 42; 54
99; 128; 137; 135
182; 239; 262; 246
250; 310; 288; 255
237; 315; 276; 255
215; 285; 256; 254
159; 232; 251; 231
99; 168; 167; 156
24; 64; 96; 125
0; 0; 5; 6
0; 0; 0; 0
0; 0; 0; 0
0; 0; 0; 0
0; 0; 0; 0
0; 0; 0; 0
6; 0; 0; 0
31; 29; 27; 30
89; 123; 130; 132
169; 221; 242; 254
245; 303; 274; 258
240; 290; 261; 252
211; 267; 260; 252
158; 222; 252; 256
101; 163; 162; 149
27; 61; 92; 119
0; 0; 0; 1
0; 0; 0; 0
0; 0; 0; 0
0; 0; 0; 0
0; 0; 0; 0
0; 0; 0; 0
5; 0; 0; 0
31; 27; 26; 30
90; 121; 127; 128
170; 220; 244; 246
246; 303; 281; 256
239; 317; 279; 250
213; 283; 258; 252
161; 240; 253; 251
97; 171; 168; 158
30; 72; 109; 115
0; 0; 2; 1
0; 0; 0; 0
0; 0; 0; 0
0; 0; 0; 0
0; 0; 0; 0
0; 0; 0; 0
7; 0; 0; 0
39; 38; 42; 48
93; 129; 131; 128
175; 235; 253; 238
244; 302; 275; 261
237; 312; 269; 260
216; 286; 258; 253
164; 243; 242; 241
99; 174; 179; 165
34; 83; 124; 120
0; 0; 3; 1
0; 0; 0; 0
0; 0; 0; 0
0; 0; 0; 0
0; 0; 0; 0
0; 0; 0; 0
5; 0; 0; 0
36; 34; 35; 43
89; 122; 131; 133
168; 222; 249; 242
245; 304; 283; 253
241; 290; 257; 250
212; 268; 253; 256
161; 228; 250; 256
105; 174; 182; 177
30; 68; 110; 117
0; 0; 6; 3
0; 0; 0; 0
0; 0; 0; 0
0; 0; 0; 0
0; 0; 0; 0
0; 0; 0; 0
12; 1; 0; 0
45; 50; 56; 77
104; 130; 128; 134
199; 255; 244; 241
249; 304; 277; 254
238; 313; 271; 264
210; 277; 254; 257
144; 209; 233; 255
78; 130; 152; 133
9; 28; 51; 64
0; 0; 0; 0
0; 0; 0; 0
0; 0; 0; 0
0; 0; 0; 0
0; 0; 0; 0
0; 0; 0; 0
4; 0; 0; 0
36; 37; 38; 44
90; 122; 131; 127
168; 222; 248; 242
245; 302; 284; 252
241; 286; 258; 256
215; 269; 258; 251
166; 229; 253; 234
108; 177; 189; 187
30; 71; 115; 126
0; 0; 12; 15
0; 0; 0; 0
0; 0; 0; 0
0; 0; 0; 0
0; 0; 0; 0
0; 0; 0; 0
18; 11; 4; 0
53; 59; 73; 95
118; 147; 136; 133
204; 254; 255; 254
242; 292; 262; 259
229; 294; 262; 257
212; 272; 251; 245
132; 208; 230; 246
63; 126; 149; 134
0; 14; 30; 37
0; 0; 0; 0
0; 0; 0; 0
0; 0; 0; 0
0; 0; 0; 0
0; 0; 0; 0
0; 0; 0; 0
18; 10; 2; 0
50; 60; 71; 93
116; 137; 134; 134
204; 249; 255; 242
248; 301; 273; 250
229; 295; 260; 259
205; 266; 260; 256
133; 194; 214; 231
71; 122; 136; 131
0; 12; 24; 30
0; 0; 0; 0
0; 0; 0; 0
0; 0; 0; 0
0; 0; 0; 0
0; 0; 0; 0
0; 0; 0; 0
18; 6; 1; 0
46; 53; 55; 71
116; 130; 125; 133
210; 254; 255; 244
248; 296; 262; 257
232; 297; 259; 259
214; 277; 253; 249
139; 198; 219; 244
69; 129; 145; 133
4; 25; 45; 65
0; 0; 0; 0
0; 0; 0; 0
0; 0; 0; 0
0; 0; 0; 0
0; 0; 0; 0
0; 0; 0; 0
10; 0; 0; 0
48; 50; 58; 76
108; 129; 138; 133
203; 252; 244; 254
249; 320; 291; 254
226; 300; 265; 258
205; 268; 258; 242
138; 200; 226; 248
70; 130; 154; 133
4; 24; 43; 52
0; 0; 0; 0
0; 0; 0; 0
0; 0; 0; 0
0; 0; 0; 0
0; 0; 0; 0
0; 0; 0; 0
7; 0; 0; 0
37; 33; 32; 34
92; 127; 125; 133
171; 228; 251; 258
247; 305; 282; 253
238; 314; 274; 253
211; 279; 251; 256
155; 228; 253; 260
95; 161; 164; 152
29; 67; 108; 120
0; 0; 4; 6
0; 0; 0; 0
0; 0; 0; 0
0; 0; 0; 0
0; 0; 0; 0
0; 0; 0; 0
8; 0; 0; 0
41; 39; 45; 52
95; 127; 127; 130
173; 232; 250; 259
247; 309; 287; 256
240; 291; 257; 252
216; 274; 251; 245
162; 232; 254; 238
101; 173; 177; 173
29; 71; 113; 126
0; 0; 5; 4
0; 0; 0; 0
0; 0; 0; 0
0; 0; 0; 0
0; 0; 0; 0
0; 0; 0; 0
15; 1; 0; 0
44; 43; 44; 57
110; 131; 136; 138
198; 250; 255; 256
247; 320; 288; 262
228; 306; 267; 256
207; 276; 251; 245
138; 195; 219; 239
75; 132; 134; 138
10; 33; 53; 78
0; 0; 0; 0
0; 0; 0; 0
0; 0; 0; 0
0; 0; 0; 0
0; 0; 0; 0
0; 0; 0; 0
12; 2; 0; 0
46; 50; 56; 73
105; 126; 133; 130
195; 248; 258; 249
246; 316; 294; 259
229; 307; 269; 259
203; 270; 256; 249
139; 202; 227; 249
71; 129; 130; 133
5; 27; 44; 57
0; 0; 0; 0
0; 0; 0; 0
0; 0; 0; 0
0; 0; 0; 0
0; 0; 0; 0
0; 0; 0; 0
10; 0; 0; 0
40; 38; 40; 47
101; 133; 138; 135
194; 252; 255; 247
245; 320; 299; 260
227; 303; 263; 259
208; 275; 248; 253
142; 204; 229; 248
84; 137; 164; 146
10; 33; 55; 77
0; 0; 0; 0
0; 0; 0; 0
0; 0; 0; 0
0; 0; 0; 0
0; 0; 0; 0
0; 0; 0; 0
4; 0; 0; 0
35; 33; 37; 47
86; 118; 133; 127
175; 230; 248; 261
247; 305; 281; 254
241; 291; 253; 262
218; 276; 253; 246
162; 232; 258; 248
104; 178; 184; 185
29; 74; 119; 128
0; 0; 3; 1
0; 0; 0; 0
0; 0; 0; 0
0; 0; 0; 0
0; 0; 0; 0
0; 0; 0; 0
11; 1; 0; 0
45; 49; 53; 73
106; 132; 126; 132
196; 251; 255; 248
247; 321; 288; 260
230; 310; 268; 255
211; 282; 257; 254
141; 203; 236; 255
78; 126; 151; 135
9; 23; 47; 61
0; 0; 0; 0
0; 0; 0; 0
0; 0; 0; 0
0; 0; 0; 0
0; 0; 0; 0
0; 0; 0; 0
2; 0; 0; 0
36; 34; 35; 43
92; 126; 122; 130
170; 227; 243; 246
247; 307; 279; 251
242; 292; 256; 250
216; 276; 252; 245
166; 234; 254; 252
104; 179; 177; 170
28; 69; 107; 116
0; 0; 4; 2
0; 0; 0; 0
0; 0; 0; 0
0; 0; 0; 0
0; 0; 0; 0
0; 0; 0; 0
9; 0; 0; 0
41; 41; 45; 59
101; 130; 137; 134
185; 247; 244; 241
245; 323; 303; 265
223; 304; 264; 254
200; 266; 256; 258
148; 208; 238; 231
79; 133; 159; 139
11; 32; 57; 75
0; 0; 0; 0
0; 0; 0; 0
0; 0; 0; 0
0; 0; 0; 0
0; 0; 0; 0
0; 0; 0; 0
6; 0; 0; 0
32; 30; 31; 31
89; 119; 136; 133
166; 219; 242; 247
245; 303; 280; 253
238; 289; 256; 255
212; 268; 264; 248
158; 224; 252; 257
102; 169; 174; 165
23; 62; 95; 124
0; 0; 1; 1
0; 0; 0; 0
0; 0; 0; 0
0; 0; 0; 0
0; 0; 0; 0
0; 0; 0; 0
7; 0; 0; 0
36; 33; 38; 46
90; 123; 131; 127
173; 231; 255; 238
241; 299; 269; 267
236; 309; 261; 254
217; 285; 254; 250
166; 243; 242; 255
108; 185; 185; 185
27; 74; 116; 126
0; 0; 10; 10
0; 0; 0; 0
0; 0; 0; 0
0; 0; 0; 0
0; 0; 0; 0
0; 0; 0; 0
14; 1; 0; 0
53; 58; 70; 94
120; 132; 131; 133
205; 251; 253; 242
246; 314; 288; 253
222; 295; 255; 255
202; 264; 258; 259
135; 195; 215; 233
75; 134; 137; 133
7; 28; 49; 67
0; 0; 0; 0
0; 0; 0; 0
0; 0; 0; 0
0; 0; 0; 0
0; 0; 0; 0
0; 0; 0; 0
12; 1; 0; 0
43; 43; 49; 59
111; 134; 133; 131
204; 256; 245; 256
245; 319; 283; 255
228; 309; 264; 252
208; 277; 251; 245
134; 197; 212; 232
74; 129; 156; 141
4; 23; 45; 54
0; 0; 0; 0
0; 0; 0; 0
0; 0; 0; 0
0; 0; 0; 0
0; 0; 0; 0
0; 0; 0; 0
10; 0; 0; 0
37; 39; 36; 44
99; 129; 132; 128
179; 237; 255; 244
249; 308; 287; 259
240; 287; 253; 259
215; 272; 254; 242
157; 217; 245; 252
94; 155; 149; 137
23; 55; 83; 117
0; 0; 0; 1
0; 0; 0; 0
0; 0; 0; 0
0; 0; 0; 0
0; 0; 0; 0
0; 0; 0; 0
13; 0; 0; 0
45; 49; 56; 73
101; 129; 126; 135
190; 251; 259; 246
250; 308; 283; 253
234; 305; 266; 253
211; 276; 256; 248
144; 206; 237; 248
81; 133; 160; 139
10; 31; 52; 69
0; 0; 0; 0
0; 0; 0; 0
0; 0; 0; 0
0; 0; 0; 0
0; 0; 0; 0
0; 0; 0; 0
10; 0; 0; 0
38; 42; 42; 49
98; 126; 133; 125
181; 243; 238; 239
248; 310; 284; 256
233; 306; 262; 263
212; 280; 251; 250
157; 225; 256; 233
94; 159; 159; 146
20; 51; 78; 105
0; 0; 0; 3
0; 0; 0; 0
0; 0; 0; 0
0; 0; 0; 0
0; 0; 0; 0
0; 0; 0; 0
5; 0; 0; 0
39; 38; 39; 47
96; 128; 134; 135
171; 232; 256; 238
242; 300; 274; 271
235; 306; 262; 251
207; 275; 250; 259
159; 231; 253; 238
99; 170; 174; 167
25; 68; 103; 134
0; 0; 4; 2
0; 0; 0; 0
0; 0; 0; 0
0; 0; 0; 0
0; 0; 0; 0
0; 0; 0; 0
12; 0; 0; 0
42; 41; 42; 50
103; 134; 129; 136
198; 252; 248; 246
245; 314; 291; 256
228; 302; 262; 255
209; 275; 248; 252
144; 205; 229; 250
79; 130; 153; 137
15; 34; 63; 90
0; 0; 0; 1
0; 0; 0; 0
0; 0; 0; 0
0; 0; 0; 0
0; 0; 0; 0
0; 0; 0; 0
12; 0; 0; 0
44; 48; 56; 73
101; 127; 132; 133
191; 247; 257; 248
246; 320; 300; 262
225; 302; 263; 261
202; 267; 257; 257
144; 207; 235; 253
83; 138; 137; 137
13; 38; 60; 84
0; 0; 0; 0
0; 0; 0; 0
0; 0; 0; 0
0; 0; 0; 0
0; 0; 0; 0
0; 0; 0; 0
8; 0; 0; 0
34; 31; 29; 33
90; 125; 131; 125
168; 228; 249; 252
242; 298; 269; 266
233; 304; 267; 258
208; 273; 257; 250
159; 230; 254; 243
101; 172; 179; 178
18; 60; 95; 127
0; 0; 4; 9
0; 0; 0; 0
0; 0; 0; 0
0; 0; 0; 0
0; 0; 0; 0
0; 0; 0; 0
6; 0; 0; 0
40; 38; 39; 46
86; 123; 130; 125
176; 234; 254; 246
246; 307; 283; 258
234; 310; 269; 254
211; 279; 251; 251
164; 236; 260; 249
101; 175; 186; 187
24; 67; 104; 130
0; 0; 4; 5
0; 0; 0; 0
0; 0; 0; 0
0; 0; 0; 0
0; 0; 0; 0
0; 0; 0; 0
13; 2; 0; 0
46; 50; 57; 74
108; 134; 136; 132
201; 252; 241; 252
247; 300; 261; 253
235; 310; 266; 255
215; 283; 257; 257
148; 210; 232; 247
82; 139; 135; 137
7; 31; 46; 64
0; 0; 0; 0
0; 0; 0; 0
0; 0; 0; 0
0; 0; 0; 0
0; 0; 0; 0
0; 0; 0; 0
7; 0; 0; 0
33; 31; 27; 31
90; 125; 132; 127
169; 226; 246; 249
247; 303; 277; 258
241; 290; 261; 252
212; 267; 252; 258
160; 223; 250; 249
97; 162; 162; 143
27; 63; 96; 127
0; 0; 3; 4
0; 0; 0; 0
0; 0; 0; 0
0; 0; 0; 0
0; 0; 0; 0
0; 0; 0; 0
1; 0; 0; 0
33; 29; 30; 36
83; 113; 135; 126
166; 224; 245; 253
242; 303; 274; 256
242; 292; 256; 250
218; 280; 255; 249
162; 234; 259; 248
108; 184; 200; 205
36; 86; 127; 130
0; 0; 11; 8
0; 0; 0; 0
0; 0; 0; 0
0; 0; 0; 0
0; 0; 0; 0
0; 0; 0; 0
11; 0; 0; 0
47; 50; 58; 75
107; 133; 133; 135
199; 251; 252; 255
249; 300; 267; 262
233; 302; 259; 254
215; 283; 259; 251
148; 212; 249; 248
83; 142; 140; 130
16; 39; 59; 85
0; 0; 0; 0
0; 0; 0; 0
0; 0; 0; 0
0; 0; 0; 0
0; 0; 0; 0
0; 0; 0; 0
13; 1; 0; 0
47; 50; 57; 74
108; 134; 134; 133
200; 253; 247; 249
244; 314; 288; 251
227; 302; 265; 248
210; 278; 258; 257
144; 207; 241; 236
82; 134; 163; 148
9; 29; 54; 72
0; 0; 0; 0
0; 0; 0; 0
0; 0; 0; 0
0; 0; 0; 0
0; 0; 0; 0
0; 0; 0; 0
3; 0; 0; 0
37; 37; 38; 44
92; 125; 137; 128
174; 234; 254; 239
244; 300; 274; 265
242; 290; 256; 251
213; 269; 253; 256
161; 225; 252; 255
102; 172; 175; 165
28; 71; 110; 122
0; 0; 4; 3
0; 0; 0; 0
0; 0; 0; 0
0; 0; 0; 0
0; 0; 0; 0
0; 0; 0; 0
13; 0; 0; 0
42; 42; 44; 52
106; 134; 130; 129
199; 255; 250; 252
247; 321; 301; 266
231; 311; 279; 249
204; 271; 253; 256
140; 205; 234; 251
79; 134; 141; 136
9; 33; 47; 65
0; 0; 0; 0
0; 0; 0; 0
0; 0; 0; 0
0; 0; 0; 0
0; 0; 0; 0
0; 0; 0; 0
7; 0; 0; 0
38; 38; 42; 53
91; 129; 130; 128
175; 235; 254; 239
242; 302; 277; 263
236; 311; 268; 260
217; 286; 255; 254
162; 234; 249; 259
108; 182; 191; 195
33; 79; 123; 131
0; 0; 1; 1
0; 0; 0; 0
0; 0; 0; 0
0; 0; 0; 0
0; 0; 0; 0
0; 0; 0; 0
12; 0; 0; 0
46; 47; 57; 72
104; 132; 122; 134
193; 252; 254; 241
247; 321; 297; 257
232; 311; 275; 253
212; 284; 255; 258
147; 213; 240; 240
81; 141; 134; 149
16; 38; 57; 83
0; 0; 0; 0
0; 0; 0; 0
0; 0; 0; 0
0; 0; 0; 0
0; 0; 0; 0
0; 0; 0; 0
8; 0; 0; 0
37; 35; 36; 36
94; 126; 125; 130
181; 241; 254; 256
250; 311; 285; 257
237; 311; 268; 255
210; 279; 253; 255
158; 230; 254; 239
102; 173; 179; 174
26; 68; 108; 121
0; 0; 4; 2
0; 0; 0; 0
0; 0; 0; 0
0; 0; 0; 0
0; 0; 0; 0
0; 0; 0; 0
11; 0; 0; 0
43; 44; 45; 57
110; 131; 138; 136
201; 252; 259; 251
247; 317; 288; 259
224; 299; 263; 253
200; 267; 260; 257
138; 197; 222; 241
69; 129; 150; 134
4; 27; 50; 70
0; 0; 0; 0
0; 0; 0; 0
0; 0; 0; 0
0; 0; 0; 0
0; 0; 0; 0
0; 0; 0; 0
10; 0; 0; 0
41; 40; 38; 47
104; 132; 127; 130
198; 252; 247; 246
245; 314; 289; 251
226; 303; 264; 248
207; 276; 253; 252
146; 212; 242; 238
84; 143; 138; 130
17; 43; 64; 88
0; 0; 0; 0
0; 0; 0; 0
0; 0; 0; 0
0; 0; 0; 0
0; 0; 0; 0
0; 0; 0; 0
7; 0; 0; 0
36; 31; 28; 31
94; 130; 129; 130
177; 240; 262; 246
244; 306; 280; 256
236; 309; 269; 256
212; 279; 249; 252
162; 232; 258; 246
97; 167; 169; 159
30; 72; 113; 124
0; 0; 7; 5
0; 0; 0; 0
0; 0; 0; 0
0; 0; 0; 0
0; 0; 0; 0
0; 0; 0; 0
14; 0; 0; 0
43; 47; 53; 66
103; 134; 131; 135
195; 250; 249; 253
247; 303; 266; 262
236; 306; 263; 252
215; 283; 261; 252
150; 220; 251; 254
89; 149; 147; 136
15; 42; 62; 84
0; 0; 0; 0
0; 0; 0; 0
0; 0; 0; 0
0; 0; 0; 0
0; 0; 0; 0
0; 0; 0; 0
11; 0; 0; 0
42; 44; 51; 66
101; 132; 132; 131
191; 249; 259; 242
250; 310; 288; 256
236; 306; 261; 255
210; 276; 252; 262
151; 217; 248; 248
80; 137; 133; 146
10; 32; 44; 66
0; 0; 0; 0
0; 0; 0; 0
0; 0; 0; 0
0; 0; 0; 0
0; 0; 0; 0
0; 0; 0; 0
3; 0; 0; 0
40; 37; 41; 51
91; 125; 124; 131
176; 236; 254; 246
249; 309; 288; 261
238; 312; 272; 264
218; 287; 256; 254
164; 241; 253; 252
107; 180; 183; 185
31; 78; 117; 127
0; 0; 0; 1
0; 0; 0; 0
0; 0; 0; 0
0; 0; 0; 0
0; 0; 0; 0
0; 0; 0; 0
15; 1; 0; 0
50; 54; 61; 79
106; 130; 132; 129
198; 251; 255; 256
245; 319; 288; 256
229; 308; 266; 253
204; 270; 261; 250
141; 201; 226; 245
74; 131; 133; 142
8; 32; 47; 65
0; 0; 0; 0
0; 0; 0; 0
0; 0; 0; 0
0; 0; 0; 0
0; 0; 0; 0
0; 0; 0; 0
9; 0; 0; 0
34; 29; 28; 32
91; 124; 120; 139
177; 234; 248; 256
247; 307; 281; 252
241; 293; 257; 252
214; 270; 257; 255
163; 230; 258; 246
104; 175; 182; 182
26; 66; 105; 137
0; 0; 1; 1
0; 0; 0; 0
0; 0; 0; 0
0; 0; 0; 0
0; 0; 0; 0
0; 0; 0; 0
15; 1; 0; 0
42; 43; 44; 53
110; 131; 128; 133
203; 254; 252; 240
243; 309; 280; 259
229; 307; 266; 256
210; 278; 252; 242
139; 198; 221; 241
80; 131; 134; 147
12; 38; 55; 78
0; 0; 0; 0
0; 0; 0; 0
0; 0; 0; 0
0; 0; 0; 0
0; 0; 0; 0
0; 0; 0; 0
14; 1; 0; 0
41; 43; 44; 53
108; 133; 128; 135
201; 258; 249; 246
246; 303; 272; 267
231; 300; 259; 246
213; 283; 262; 253
142; 203; 232; 254
82; 134; 160; 145
10; 28; 52; 70
0; 0; 0; 0
0; 0; 0; 0
0; 0; 0; 0
0; 0; 0; 0
0; 0; 0; 0
0; 0; 0; 0
13; 2; 0; 0
42; 42; 43; 57
109; 130; 131; 131
198; 252; 261; 259
247; 322; 294; 259
232; 311; 275; 256
212; 283; 255; 258
140; 202; 222; 244
74; 133; 133; 130
8; 32; 47; 66
0; 0; 0; 0
0; 0; 0; 0
0; 0; 0; 0
0; 0; 0; 0
0; 0; 0; 0
0; 0; 0; 0
2; 0; 0; 0
36; 34; 35; 43
93; 127; 129; 130
176; 236; 254; 248
246; 302; 279; 257
240; 311; 269; 250
217; 288; 255; 258
166; 240; 258; 252
103; 181; 183; 181
29; 74; 115; 126
0; 0; 7; 8
0; 0; 0; 0
0; 0; 0; 0
0; 0; 0; 0
0; 0; 0; 0
0; 0; 0; 0
12; 1; 0; 0
44; 47; 54; 73
105; 132; 127; 127
195; 254; 249; 248
246; 322; 293; 256
229; 310; 268; 258
204; 273; 253; 256
137; 198; 219; 244
75; 130; 135; 137
4; 28; 45; 64
0; 0; 0; 0
0; 0; 0; 0
0; 0; 0; 0
0; 0; 0; 0
0; 0; 0; 0
0; 0; 0; 0
7; 0; 0; 0
35; 32; 33; 35
91; 123; 131; 134
173; 231; 249; 240
246; 304; 278; 248
240; 291; 260; 247
215; 275; 249; 241
161; 233; 258; 248
106; 177; 186; 189
33; 78; 120; 136
0; 0; 1; 1
0; 0; 0; 0
0; 0; 0; 0
0; 0; 0; 0
0; 0; 0; 0
0; 0; 0; 0
11; 1; 0; 0
44; 49; 53; 72
104; 131; 121; 133
193; 251; 254; 247
245; 320; 297; 265
229; 311; 273; 253
203; 270; 258; 242
143; 203; 232; 247
76; 132; 132; 135
11; 38; 55; 78
0; 0; 0; 0
0; 0; 0; 0
0; 0; 0; 0
0; 0; 0; 0
0; 0; 0; 0
0; 0; 0; 0
9; 0; 0; 0
42; 42; 46; 58
95; 125; 126; 127
181; 245; 242; 240
246; 305; 280; 257
234; 307; 266; 257
210; 276; 252; 256
158; 224; 251; 260
98; 166; 169; 165
25; 62; 96; 127
0; 0; 2; 1
0; 0; 0; 0
0; 0; 0; 0
0; 0; 0; 0
0; 0; 0; 0
0; 0; 0; 0
1; 0; 0; 0
34; 32; 32; 41
89; 121; 139; 125
170; 225; 248; 252
242; 295; 265; 260
236; 309; 268; 259
216; 285; 251; 254
166; 241; 255; 252
106; 183; 184; 183
34; 81; 121; 120
0; 0; 1; 1
0; 0; 0; 0
0; 0; 0; 0
0; 0; 0; 0
0; 0; 0; 0
0; 0; 0; 0
13; 0; 0; 0
43; 44; 53; 71
100; 129; 127; 134
200; 251; 251; 252
245; 314; 284; 257
228; 302; 265; 258
205; 270; 255; 258
146; 204; 236; 254
85; 138; 134; 146
10; 31; 43; 59
0; 0; 0; 0
0; 0; 0; 0
0; 0; 0; 0
0; 0; 0; 0
0; 0; 0; 0
0; 0; 0; 0
13; 0; 0; 0
44; 45; 53; 68
101; 128; 133; 134
194; 251; 255; 254
248; 302; 268; 262
238; 310; 264; 253
215; 283; 258; 252
148; 211; 245; 234
82; 137; 133; 140
19; 41; 63; 87
0; 0; 0; 0
0; 0; 0; 0
0; 0; 0; 0
0; 0; 0; 0
0; 0; 0; 0
0; 0; 0; 0
9; 0; 0; 0
35; 32; 34; 36
97; 126; 128; 131
179; 240; 255; 248
244; 302; 269; 265
236; 310; 262; 250
211; 275; 252; 261
159; 232; 254; 242
94; 161; 163; 149
25; 61; 89; 123
0; 0; 0; 1
0; 0; 0; 0
0; 0; 0; 0
0; 0; 0; 0
0; 0; 0; 0
0; 0; 0; 0
4; 0; 0; 0
33; 27; 24; 26
90; 119; 132; 124
166; 216; 239; 238
245; 301; 280; 251
236; 310; 265; 253
217; 288; 257; 254
167; 245; 240; 238
108; 189; 201; 204
34; 87; 131; 125
0; 0; 12; 12
0; 0; 0; 0
0; 0; 0; 0
0; 0; 0; 0
0; 0; 0; 0
0; 0; 0; 0
21; 9; 1; 0
56; 63; 74; 101
118; 146; 127; 133
213; 260; 244; 259
246; 315; 283; 252
221; 296; 255; 257
200; 264; 256; 257
132; 183; 197; 204
73; 128; 131; 131
4; 27; 42; 55
0; 0; 0; 0
0; 0; 0; 0
0; 0; 0; 0
0; 0; 0; 0
0; 0; 0; 0
0; 0; 0; 0
12; 1; 0; 0
46; 49; 53; 64
110; 134; 127; 129
205; 256; 244; 243
248; 300; 269; 259
237; 310; 261; 250
213; 279; 247; 258
136; 192; 209; 218
69; 126; 139; 131
4; 25; 38; 51
0; 0; 0; 0
0; 0; 0; 0
0; 0; 0; 0
0; 0; 0; 0
0; 0; 0; 0
0; 0; 0; 0
13; 3; 0; 0
46; 51; 58; 77
110; 133; 137; 138
201; 254; 242; 254
245; 320; 289; 254
227; 300; 263; 255
203; 271; 253; 255
140; 201; 226; 246
75; 134; 133; 142
8; 35; 50; 73
0; 0; 0; 0
0; 0; 0; 0
0; 0; 0; 0
0; 0; 0; 0
0; 0; 0; 0
0; 0; 0; 0
8; 0; 0; 0
39; 37; 38; 48
93; 126; 130; 128
173; 232; 247; 254
243; 301; 273; 265
241; 316; 273; 253
218; 288; 258; 258
162; 233; 251; 233
101; 171; 172; 158
25; 65; 98; 125
0; 0; 4; 8
0; 0; 0; 0
0; 0; 0; 0
0; 0; 0; 0
0; 0; 0; 0
0; 0; 0; 0
1; 0; 0; 0
35; 34; 35; 40
92; 129; 128; 128
173; 229; 254; 260
247; 309; 284; 260
242; 291; 257; 246
214; 275; 250; 241
164; 233; 259; 248
101; 167; 172; 162
28; 70; 112; 121
0; 0; 5; 4
0; 0; 0; 0
0; 0; 0; 0
0; 0; 0; 0
0; 0; 0; 0
0; 0; 0; 0
16; 3; 0; 0
41; 43; 47; 58
107; 134; 132; 136
201; 258; 247; 260
249; 320; 296; 260
222; 301; 265; 250
208; 277; 257; 256
141; 205; 238; 228
70; 130; 130; 135
4; 27; 40; 49
0; 0; 0; 0
0; 0; 0; 0
0; 0; 0; 0
0; 0; 0; 0
0; 0; 0; 0
0; 0; 0; 0
3; 0; 0; 0
39; 36; 40; 47
95; 129; 130; 126
174; 238; 258; 248
243; 303; 277; 258
236; 311; 265; 250
214; 284; 259; 251
165; 241; 252; 249
98; 173; 171; 159
29; 72; 114; 119
0; 0; 9; 5
0; 0; 0; 0
0; 0; 0; 0
0; 0; 0; 0
0; 0; 0; 0
0; 0; 0; 0
4; 0; 0; 0
38; 38; 39; 50
91; 129; 130; 129
171; 228; 251; 251
247; 307; 283; 253
240; 290; 255; 255
213; 274; 249; 244
163; 230; 254; 241
96; 166; 164; 151
30; 73; 114; 124
0; 0; 5; 4
0; 0; 0; 0
0; 0; 0; 0
0; 0; 0; 0
0; 0; 0; 0
0; 0; 0; 0
10; 0; 0; 0
40; 37; 40; 45
102; 126; 137; 130
196; 251; 257; 253
245; 321; 293; 265
228; 308; 271; 254
202; 268; 261; 250
149; 214; 249; 246
84; 144; 144; 136
16; 45; 68; 97
0; 0; 0; 0
0; 0; 0; 0
0; 0; 0; 0
0; 0; 0; 0
0; 0; 0; 0
0; 0; 0; 0
7; 0; 0; 0
34; 28; 26; 31
90; 122; 130; 129
169; 225; 242; 254
246; 305; 279; 248
240; 288; 260; 247
216; 275; 251; 241
166; 235; 255; 252
103; 176; 176; 168
28; 67; 104; 130
0; 0; 5; 2
0; 0; 0; 0
0; 0; 0; 0
0; 0; 0; 0
0; 0; 0; 0
0; 0; 0; 0
14; 0; 0; 0
47; 50; 57; 73
103; 132; 122; 131
198; 256; 245; 249
247; 302; 274; 267
238; 311; 267; 261
210; 275; 253; 257
144; 205; 229; 252
84; 137; 134; 138
12; 30; 51; 71
0; 0; 0; 0
0; 0; 0; 0
0; 0; 0; 0
0; 0; 0; 0
0; 0; 0; 0
0; 0; 0; 0
9; 0; 0; 0
38; 35; 33; 36
93; 127; 124; 122
177; 236; 249; 255
249; 310; 287; 258
238; 319; 279; 248
210; 280; 252; 243
159; 231; 257; 246
99; 171; 178; 173
28; 67; 106; 115
0; 0; 4; 2
0; 0; 0; 0
0; 0; 0; 0
0; 0; 0; 0
0; 0; 0; 0
0; 0; 0; 0
7; 0; 0; 0
37; 32; 33; 33
98; 125; 136; 128
176; 228; 251; 257
249; 309; 282; 254
241; 290; 261; 250
212; 267; 261; 252
154; 215; 246; 244
99; 160; 167; 158
29; 66; 105; 133
0; 0; 0; 0
0; 0; 0; 0
0; 0; 0; 0
0; 0; 0; 0
0; 0; 0; 0
0; 0; 0; 0
3; 0; 0; 0
38; 38; 41; 52
99; 130; 131; 136
182; 245; 247; 249
246; 327; 308; 275
231; 316; 283; 254
211; 283; 255; 253
153; 224; 254; 233
93; 160; 160; 141
29; 68; 104; 131
0; 0; 2; 1
0; 0; 0; 0
0; 0; 0; 0
0; 0; 0; 0
0; 0; 0; 0
0; 0; 0; 0
13; 0; 0; 0
43; 41; 43; 50
105; 131; 128; 127
198; 256; 242; 251
247; 322; 292; 264
225; 305; 266; 255
204; 270; 261; 250
147; 208; 240; 232
84; 135; 167; 153
11; 31; 58; 77
0; 0; 0; 0
0; 0; 0; 0
0; 0; 0; 0
0; 0; 0; 0
0; 0; 0; 0
0; 0; 0; 0
10; 0; 0; 0
45; 43; 46; 64
107; 133; 131; 131
199; 255; 242; 251
246; 314; 283; 258
222; 302; 263; 254
207; 276; 254; 253
145; 211; 240; 237
84; 140; 137; 128
9; 34; 46; 62
0; 0; 0; 0
0; 0; 0; 0
0; 0; 0; 0
0; 0; 0; 0
0; 0; 0; 0
0; 0; 0; 0
7; 0; 0; 0
38; 35; 38; 45
90; 123; 131; 127
169; 224; 245; 249
246; 304; 279; 249
243; 293; 257; 250
218; 277; 254; 251
167; 240; 249; 246
105; 175; 172; 159
33; 79; 116; 129
0; 0; 1; 0
0; 0; 0; 0
0; 0; 0; 0
0; 0; 0; 0
0; 0; 0; 0
0; 0; 0; 0
12; 0; 0; 0
41; 46; 53; 73
106; 132; 131; 134
194; 251; 256; 252
246; 321; 294; 257
222; 302; 265; 251
207; 275; 254; 251
146; 210; 244; 238
84; 139; 138; 130
16; 40; 61; 86
0; 0; 0; 0
0; 0; 0; 0
0; 0; 0; 0
0; 0; 0; 0
0; 0; 0; 0
0; 0; 0; 0
4; 0; 0; 0
39; 40; 43; 53
93; 126; 126; 129
180; 239; 261; 247
251; 310; 289; 260
242; 292; 257; 247
217; 275; 251; 246
165; 234; 261; 247
106; 174; 184; 186
26; 67; 104; 137
0; 0; 3; 6
0; 0; 0; 0
0; 0; 0; 0
0; 0; 0; 0
0; 0; 0; 0
0; 0; 0; 0
13; 3; 0; 0
50; 51; 61; 78
107; 130; 131; 128
200; 251; 259; 248
246; 318; 289; 258
224; 302; 264; 255
205; 270; 260; 244
142; 202; 227; 248
77; 134; 133; 142
11; 36; 51; 72
0; 0; 0; 0
0; 0; 0; 0
0; 0; 0; 0
0; 0; 0; 0
0; 0; 0; 0
0; 0; 0; 0
8; 0; 0; 0
38; 36; 39; 42
98; 125; 137; 127
184; 239; 254; 249
245; 302; 270; 266
235; 309; 262; 256
207; 274; 251; 254
150; 214; 242; 238
86; 145; 142; 132
21; 50; 74; 109
0; 0; 0; 1
0; 0; 0; 0
0; 0; 0; 0
0; 0; 0; 0
0; 0; 0; 0
0; 0; 0; 0
8; 0; 0; 0
40; 39; 42; 51
90; 126; 129; 128
177; 239; 259; 242
244; 304; 280; 260
236; 309; 265; 259
216; 285; 260; 250
162; 238; 249; 255
98; 168; 164; 150
30; 70; 104; 124
0; 0; 3; 1
0; 0; 0; 0
0; 0; 0; 0
0; 0; 0; 0
0; 0; 0; 0
0; 0; 0; 0
3; 0; 0; 0
38; 38; 42; 52
86; 119; 129; 126
175; 232; 250; 239
247; 306; 282; 253
240; 290; 253; 260
212; 266; 260; 250
155; 218; 245; 246
100; 166; 165; 155
19; 56; 82; 112
0; 0; 0; 0
0; 0; 0; 0
0; 0; 0; 0
0; 0; 0; 0
0; 0; 0; 0
0; 0; 0; 0
7; 0; 0; 0
36; 32; 32; 31
92; 129; 124; 132
176; 236; 254; 248
243; 303; 278; 256
232; 306; 266; 252
216; 283; 256; 257
163; 237; 254; 242
103; 178; 186; 186
33; 76; 119; 130
0; 0; 5; 4
0; 0; 0; 0
0; 0; 0; 0
0; 0; 0; 0
0; 0; 0; 0
0; 0; 0; 0
17; 2; 0; 0
48; 51; 59; 78
107; 127; 131; 132
197; 251; 260; 248
249; 322; 305; 268
228; 307; 273; 253
203; 270; 254; 249
140; 201; 227; 246
77; 135; 134; 145
5; 28; 41; 54
0; 0; 0; 0
0; 0; 0; 0
0; 0; 0; 0
0; 0; 0; 0
0; 0; 0; 0
0; 0; 0; 0
6; 0; 0; 0
35; 28; 31; 32
90; 123; 131; 132
169; 224; 242; 246
244; 303; 274; 254
239; 316; 271; 261
216; 286; 263; 253
165; 243; 245; 251
102; 175; 174; 163
33; 75; 117; 128
0; 0; 8; 9
0; 0; 0; 0
0; 0; 0; 0
0; 0; 0; 0
0; 0; 0; 0
0; 0; 0; 0
12; 0; 0; 0
50; 50; 60; 79
110; 134; 136; 139
198; 251; 258; 256
249; 323; 293; 260
229; 313; 273; 250
206; 273; 254; 253
147; 209; 236; 253
80; 134; 162; 149
12; 34; 60; 86
0; 0; 0; 0
0; 0; 0; 0
0; 0; 0; 0
0; 0; 0; 0
0; 0; 0; 0
0; 0; 0; 0
8; 0; 0; 0
37; 34; 34; 37
95; 127; 128; 125
182; 244; 245; 241
245; 323; 304; 269
230; 314; 284; 257
209; 281; 257; 255
151; 217; 246; 241
92; 152; 158; 132
24; 58; 90; 118
0; 0; 0; 1
0; 0; 0; 0
0; 0; 0; 0
0; 0; 0; 0
0; 0; 0; 0
0; 0; 0; 0
6; 0; 0; 0
33; 28; 28; 30
89; 123; 130; 130
168; 220; 246; 247
246; 304; 281; 255
242; 293; 257; 253
214; 275; 252; 246
164; 236; 260; 241
103; 178; 185; 183
33; 78; 119; 130
0; 0; 3; 1
0; 0; 0; 0
0; 0; 0; 0
0; 0; 0; 0
0; 0; 0; 0
0; 0; 0; 0
12; 1; 0; 0
44; 49; 54; 75
105; 132; 128; 134
198; 258; 247; 244
246; 322; 300; 260
231; 310; 279; 249
205; 271; 254; 255
145; 206; 236; 253
81; 134; 161; 146
12; 36; 62; 88
0; 0; 0; 0
0; 0; 0; 0
0; 0; 0; 0
0; 0; 0; 0
0; 0; 0; 0
0; 0; 0; 0
11; 0; 0; 0
40; 39; 42; 49
105; 133; 127; 132
200; 254; 244; 251
244; 315; 283; 259
224; 304; 265; 248
203; 269; 260; 250
142; 203; 236; 255
76; 133; 133; 136
11; 37; 54; 78
0; 0; 0; 0
0; 0; 0; 0
0; 0; 0; 0
0; 0; 0; 0
0; 0; 0; 0
0; 0; 0; 0
13; 1; 0; 0
41; 38; 44; 54
101; 129; 130; 127
198; 251; 249; 249
249; 302; 268; 259
239; 286; 253; 255
215; 273; 253; 253
151; 207; 236; 254
86; 140; 135; 150
19; 41; 60; 87
0; 0; 0; 0
0; 0; 0; 0
0; 0; 0; 0
0; 0; 0; 0
0; 0; 0; 0
0; 0; 0; 0
12; 0; 0; 0
41; 41; 43; 53
107; 132; 130; 130
198; 252; 250; 249
247; 322; 302; 266
225; 302; 268; 260
207; 276; 258; 253
142; 201; 230; 253
81; 133; 159; 144
6; 27; 47; 66
0; 0; 0; 0
0; 0; 0; 0
0; 0; 0; 0
0; 0; 0; 0
0; 0; 0; 0
0; 0; 0; 0
5; 0; 0; 0
33; 27; 29; 28
90; 121; 127; 123
173; 227; 249; 253
242; 297; 270; 268
236; 310; 263; 257
217; 286; 260; 250
166; 243; 242; 249
108; 184; 186; 186
34; 85; 125; 129
0; 0; 7; 9
0; 0; 0; 0
0; 0; 0; 0
0; 0; 0; 0
0; 0; 0; 0
0; 0; 0; 0
6; 0; 0; 0
41; 39; 43; 52
98; 125; 131; 130
175; 228; 250; 257
248; 309; 283; 259
237; 312; 268; 255
212; 278; 251; 248
163; 235; 256; 252
101; 173; 174; 169
24; 62; 96; 124
0; 0; 1; 2
0; 0; 0; 0
0; 0; 0; 0
0; 0; 0; 0
0; 0; 0; 0
0; 0; 0; 0
8; 0; 0; 0
34; 32; 28; 33
93; 130; 130; 131
172; 234; 250; 262
247; 309; 288; 255
241; 291; 257; 254
214; 274; 251; 246
164; 232; 253; 238
97; 165; 169; 158
30; 72; 114; 124
0; 0; 5; 4
0; 0; 0; 0
0; 0; 0; 0
0; 0; 0; 0
0; 0; 0; 0
0; 0; 0; 0
12; 0; 0; 0
44; 49; 57; 70
101; 128; 131; 137
191; 248; 251; 257
245; 320; 298; 265
229; 312; 275; 248
203; 270; 256; 255
139; 203; 229; 251
78; 127; 149; 134
11; 30; 53; 79
0; 0; 0; 0
0; 0; 0; 0
0; 0; 0; 0
0; 0; 0; 0
0; 0; 0; 0
0; 0; 0; 0
9; 0; 0; 0
40; 39; 42; 51
90; 125; 123; 125
173; 230; 252; 259
246; 305; 280; 256
240; 289; 262; 252
212; 266; 253; 257
159; 220; 247; 255
101; 166; 167; 159
29; 65; 100; 131
0; 0; 0; 1
0; 0; 0; 0
0; 0; 0; 0
0; 0; 0; 0
0; 0; 0; 0
0; 0; 0; 0
15; 2; 0; 0
49; 54; 61; 81
105; 127; 133; 134
196; 251; 262; 251
246; 318; 296; 259
227; 307; 270; 253
204; 270; 255; 250
143; 202; 226; 245
79; 132; 133; 142
12; 37; 54; 77
0; 0; 0; 0
0; 0; 0; 0
0; 0; 0; 0
0; 0; 0; 0
0; 0; 0; 0
0; 0; 0; 0
9; 0; 0; 0
41; 43; 48; 61
102; 129; 132; 136
194; 252; 255; 253
245; 319; 290; 262
228; 305; 262; 258
208; 275; 248; 253
143; 206; 232; 253
78; 131; 154; 136
15; 38; 65; 87
0; 0; 0; 0
0; 0; 0; 0
0; 0; 0; 0
0; 0; 0; 0
0; 0; 0; 0
0; 0; 0; 0
10; 0; 0; 0
38; 39; 40; 46
96; 123; 136; 132
176; 228; 251; 260
246; 306; 281; 253
238; 314; 274; 252
212; 278; 251; 248
157; 228; 251; 242
92; 159; 156; 142
22; 60; 94; 129
0; 0; 2; 3
0; 0; 0; 0
0; 0; 0; 0
0; 0; 0; 0
0; 0; 0; 0
0; 0; 0; 0
6; 0; 0; 0
34; 30; 27; 31
93; 126; 121; 125
177; 235; 251; 236
248; 310; 288; 254
239; 313; 272; 260
217; 288; 258; 257
165; 243; 239; 237
97; 174; 171; 162
34; 79; 119; 135
0; 0; 3; 4
0; 0; 0; 0
0; 0; 0; 0
0; 0; 0; 0
0; 0; 0; 0
0; 0; 0; 0
4; 0; 0; 0
38; 35; 38; 46
86; 118; 135; 131
176; 231; 249; 238
246; 298; 273; 263
236; 309; 264; 259
217; 284; 261; 256
166; 241; 253; 251
108; 184; 186; 187
35; 81; 122; 123
0; 0; 1; 1
0; 0; 0; 0
0; 0; 0; 0
0; 0; 0; 0
0; 0; 0; 0
0; 0; 0; 0
13; 1; 0; 0
46; 53; 58; 75
107; 130; 133; 134
199; 249; 256; 254
248; 301; 274; 267
234; 304; 265; 253
211; 275; 251; 259
139; 203; 226; 249
80; 133; 157; 141
13; 32; 60; 83
0; 0; 0; 0
0; 0; 0; 0
0; 0; 0; 0
0; 0; 0; 0
0; 0; 0; 0
0; 0; 0; 0
7; 0; 0; 0
38; 32; 32; 34
98; 130; 134; 132
180; 243; 244; 248
244; 323; 302; 267
223; 304; 265; 259
207; 275; 250; 241
152; 223; 253; 253
92; 159; 159; 148
25; 62; 95; 130
0; 0; 1; 1
0; 0; 0; 0
0; 0; 0; 0
0; 0; 0; 0
0; 0; 0; 0
0; 0; 0; 0
8; 0; 0; 0
33; 31; 28; 32
89; 120; 137; 132
168; 220; 246; 248
242; 301; 279; 253
235; 308; 265; 256
212; 278; 255; 262
159; 229; 252; 241
97; 167; 169; 161
33; 76; 117; 132
0; 0; 12; 15
0; 0; 0; 0
0; 0; 0; 0
0; 0; 0; 0
0; 0; 0; 0
0; 0; 0; 0
14; 4; 0; 0
42; 43; 47; 60
110; 131; 133; 131
204; 257; 245; 254
245; 319; 289; 261
223; 301; 265; 247
203; 270; 261; 245
138; 197; 221; 248
69; 128; 151; 131
2; 21; 40; 48
0; 0; 0; 0
0; 0; 0; 0
0; 0; 0; 0
0; 0; 0; 0
0; 0; 0; 0
0; 0; 0; 0
14; 0; 0; 0
50; 51; 57; 77
109; 132; 136; 138
201; 248; 251; 254
250; 322; 292; 257
230; 311; 271; 252
208; 280; 254; 249
145; 212; 241; 235
84; 138; 137; 128
10; 32; 45; 60
0; 0; 0; 0
0; 0; 0; 0
0; 0; 0; 0
0; 0; 0; 0
0; 0; 0; 0
0; 0; 0; 0
8; 0; 0; 0
34; 32; 33; 40
99; 128; 133; 131
181; 241; 241; 240
244; 323; 302; 261
230; 317; 281; 250
206; 273; 250; 251
158; 227; 251; 233
98; 167; 167; 157
26; 64; 98; 124
0; 0; 4; 4
0; 0; 0; 0
0; 0; 0; 0
0; 0; 0; 0
0; 0; 0; 0
0; 0; 0; 0
6; 0; 0; 0
32; 27; 25; 28
90; 122; 136; 129
169; 220; 248; 245
244; 302; 280; 253
240; 290; 257; 252
212; 267; 262; 255
163; 228; 251; 231
106; 174; 183; 179
31; 70; 111; 122
0; 0; 5; 1
0; 0; 0; 0
0; 0; 0; 0
0; 0; 0; 0
0; 0; 0; 0
0; 0; 0; 0
2; 0; 0; 0
38; 38; 39; 51
92; 125; 126; 131
177; 236; 253; 245
250; 310; 289; 260
236; 313; 272; 252
215; 285; 255; 253
163; 234; 252; 235
97; 167; 168; 152
32; 73; 114; 124
0; 0; 3; 1
0; 0; 0; 0
0; 0; 0; 0
0; 0; 0; 0
0; 0; 0; 0
0; 0; 0; 0
8; 0; 0; 0
40; 39; 42; 49
94; 127; 123; 125
179; 240; 255; 248
244; 302; 270; 264
238; 307; 263; 257
208; 275; 250; 258
158; 230; 252; 239
99; 169; 174; 168
31; 75; 114; 129
0; 0; 5; 8
0; 0; 0; 0
0; 0; 0; 0
0; 0; 0; 0
0; 0; 0; 0
0; 0; 0; 0
5; 0; 0; 0
40; 38; 38; 46
86; 124; 131; 126
174; 234; 253; 244
247; 306; 283; 258
233; 309; 265; 257
208; 275; 253; 261
157; 232; 257; 241
102; 173; 179; 169
23; 63; 100; 130
0; 0; 2; 5
0; 0; 0; 0
0; 0; 0; 0
0; 0; 0; 0
0; 0; 0; 0
0; 0; 0; 0
11; 0; 0; 0
45; 43; 45; 53
109; 132; 137; 136
201; 250; 252; 254
245; 317; 287; 256
225; 303; 266; 255
206; 273; 254; 252
136; 191; 215; 234
76; 133; 139; 137
6; 27; 46; 64
0; 0; 0; 0
0; 0; 0; 0
0; 0; 0; 0
0; 0; 0; 0
0; 0; 0; 0
0; 0; 0; 0
7; 0; 0; 0
35; 32; 33; 35
87; 119; 133; 125
174; 229; 246; 259
239; 323; 293; 258
238; 319; 283; 256
211; 280; 257; 252
161; 237; 255; 244
103; 178; 188; 182
26; 76; 121; 127
0; 0; 12; 14
0; 0; 0; 0
0; 0; 0; 0
0; 0; 0; 0
0; 0; 0; 0
0; 0; 0; 0
22; 12; 5; 2
61; 72; 87; 119
125; 137; 133; 134
212; 258; 248; 260
249; 301; 266; 260
231; 295; 260; 258
205; 260; 261; 261
132; 182; 194; 209
67; 120; 134; 136
1; 16; 31; 43
0; 0; 0; 0
0; 0; 0; 0
0; 0; 0; 0
0; 0; 0; 0
0; 0; 0; 0
0; 0; 0; 0
22; 16; 11; 8
65; 85; 109; 121
130; 155; 154; 145
221; 271; 249; 252
245; 291; 258; 250
217; 279; 254; 248
186; 259; 249; 256
129; 185; 195; 198
61; 118; 135; 130
0; 9; 25; 31
0; 0; 0; 0
0; 0; 0; 0
0; 0; 0; 0
0; 0; 0; 0
0; 0; 0; 0
0; 0; 0; 0
29; 24; 22; 26
74; 96; 125; 122
137; 172; 179; 181
215; 275; 257; 247
232; 304; 269; 254
211; 275; 247; 250
170; 247; 250; 252
114; 175; 178; 175
48; 94; 128; 127
0; 1; 9; 7
0; 0; 0; 0
0; 0; 0; 0
0; 0; 0; 0
0; 0; 0; 0
0; 0; 0; 0
0; 0; 0; 0
24; 15; 10; 4
69; 86; 112; 119
134; 168; 175; 173
221; 276; 254; 255
241; 285; 255; 260
220; 277; 254; 255
177; 252; 251; 256
120; 195; 201; 212
51; 118; 133; 128
0; 11; 19; 15
0; 0; 0; 0
0; 0; 0; 0
0; 0; 0; 0
0; 0; 0; 0
0; 0; 0; 0
12; 0; 0; 0
44; 45; 53; 70
100; 129; 130; 127
188; 247; 246; 240
242; 301; 271; 265
231; 299; 256; 261
207; 271; 251; 253
147; 209; 237; 231
84; 138; 132; 140
18; 42; 60; 80
0; 0; 0; 0
0; 0; 0; 0
0; 0; 0; 0
0; 0; 0; 0
0; 0; 0; 0
0; 0; 0; 0
5; 0; 0; 0
39; 37; 39; 46
86; 118; 132; 122
161; 209; 229; 253
230; 302; 271; 265
229; 307; 262; 253
209; 276; 247; 253
154; 221; 251; 250
100; 164; 165; 150
32; 75; 114; 121
0; 0; 2; 2
0; 0; 0; 0
0; 0; 0; 0
0; 0; 0; 0
0; 0; 0; 0
0; 0; 0; 0
15; 1; 0; 0
42; 41; 43; 54
103; 131; 127; 130
187; 246; 245; 244
239; 319; 292; 260
232; 312; 274; 252
206; 275; 247; 257
138; 197; 221; 248
79; 133; 135; 134
10; 37; 50; 71
0; 0; 0; 0
0; 0; 0; 0
0; 0; 0; 0
0; 0; 0; 0
0; 0; 0; 0
0; 0; 0; 0
14; 1; 0; 0
41; 40; 39; 49
102; 135; 132; 132
189; 248; 258; 241
239; 320; 292; 254
230; 309; 267; 255
205; 270; 253; 256
142; 205; 232; 253
80; 134; 160; 148
15; 39; 70; 103
0; 0; 0; 1
0; 0; 0; 0
0; 0; 0; 0
0; 0; 0; 0
0; 0; 0; 0
0; 0; 0; 0
21; 8; 2; 0
46; 52; 57; 72
110; 135; 133; 133
195; 247; 251; 233
243; 294; 266; 249
229; 297; 260; 252
205; 266; 261; 253
133; 204; 225; 242
74; 134; 134; 142
7; 34; 49; 61
0; 0; 0; 0
0; 0; 0; 0
0; 0; 0; 0
0; 0; 0; 0
0; 0; 0; 0
0; 0; 0; 0
13; 1; 0; 0
44; 49; 57; 74
106; 131; 128; 135
192; 249; 255; 246
240; 288; 263; 261
232; 298; 261; 252
211; 276; 254; 252
144; 206; 237; 226
83; 136; 138; 134
17; 42; 70; 99
0; 0; 0; 1
0; 0; 0; 0
0; 0; 0; 0
0; 0; 0; 0
0; 0; 0; 0
0; 0; 0; 0
8; 0; 0; 0
43; 42; 50; 61
102; 126; 138; 136
186; 245; 248; 245
245; 302; 279; 262
230; 300; 259; 255
206; 271; 252; 253
147; 209; 242; 238
83; 136; 136; 143
19; 48; 71; 104
0; 0; 0; 1
0; 0; 0; 0
0; 0; 0; 0
0; 0; 0; 0
0; 0; 0; 0
0; 0; 0; 0
10; 0; 0; 0
44; 48; 54; 68
100; 126; 131; 131
188; 246; 241; 255
242; 301; 266; 259
226; 299; 255; 255
205; 272; 247; 255
136; 194; 214; 234
77; 132; 133; 133
13; 41; 64; 90
0; 0; 0; 0
0; 0; 0; 0
0; 0; 0; 0
0; 0; 0; 0
0; 0; 0; 0
0; 0; 0; 0
14; 0; 0; 0
43; 48; 55; 68
94; 127; 135; 134
166; 216; 245; 240
224; 302; 272; 262
223; 297; 257; 246
204; 269; 256; 241
142; 202; 228; 248
84; 141; 134; 146
22; 50; 74; 110
0; 0; 0; 3
0; 0; 0; 0
0; 0; 0; 0
0; 0; 0; 0
0; 0; 0; 0
0; 0; 0; 0
14; 1; 0; 0
38; 38; 42; 51
102; 131; 133; 135
186; 247; 249; 244
242; 294; 266; 261
228; 294; 255; 250
205; 264; 256; 259
144; 201; 223; 245
82; 134; 156; 137
13; 33; 56; 73
0; 0; 0; 0
0; 0; 0; 0
0; 0; 0; 0
0; 0; 0; 0
0; 0; 0; 0
0; 0; 0; 0
8; 0; 0; 0
41; 39; 41; 51
93; 125; 126; 125
171; 228; 252; 258
237; 320; 291; 259
234; 313; 278; 249
205; 273; 252; 253
154; 223; 252; 255
95; 163; 161; 155
27; 65; 98; 125
0; 0; 4; 11
0; 0; 0; 0
0; 0; 0; 0
0; 0; 0; 0
0; 0; 0; 0
0; 0; 0; 0
13; 1; 0; 0
43; 48; 55; 74
99; 127; 130; 135
171; 224; 248; 251
235; 316; 289; 259
228; 305; 267; 251
202; 268; 266; 246
145; 213; 248; 246
80; 137; 135; 152
20; 49; 73; 107
0; 0; 0; 1
0; 0; 0; 0
0; 0; 0; 0
0; 0; 0; 0
0; 0; 0; 0
0; 0; 0; 0
14; 1; 0; 0
42; 44; 49; 64
100; 129; 134; 130
184; 242; 259; 252
234; 313; 276; 257
222; 297; 261; 258
207; 272; 250; 245
143; 202; 230; 247
79; 130; 152; 133
15; 36; 61; 80
0; 0; 0; 0
0; 0; 0; 0
0; 0; 0; 0
0; 0; 0; 0
0; 0; 0; 0
0; 0; 0; 0
8; 0; 0; 0
35; 31; 31; 31
92; 122; 132; 132
157; 205; 221; 246
215; 289; 263; 257
219; 293; 261; 247
199; 263; 258; 252
149; 209; 241; 238
94; 155; 160; 149
30; 68; 99; 126
0; 0; 12; 16
0; 0; 0; 0
0; 0; 0; 0
0; 0; 0; 0
0; 0; 0; 0
0; 0; 0; 0
9; 0; 0; 0
38; 36; 34; 37
87; 122; 129; 130
165; 216; 241; 238
220; 290; 263; 259
219; 289; 260; 255
198; 259; 254; 255
137; 203; 227; 251
87; 146; 142; 138
24; 56; 81; 115
0; 0; 2; 1
0; 0; 0; 0
0; 0; 0; 0
0; 0; 0; 0
0; 0; 0; 0
0; 0; 0; 0
10; 0; 0; 0
42; 43; 48; 64
100; 127; 136; 135
174; 222; 243; 254
225; 298; 267; 249
218; 289; 260; 243
200; 263; 254; 254
141; 198; 223; 245
82; 130; 153; 137
25; 49; 80; 118
0; 0; 1; 12
0; 0; 0; 0
0; 0; 0; 0
0; 0; 0; 0
0; 0; 0; 0
0; 0; 0; 0
18; 5; 0; 0
44; 46; 44; 57
99; 133; 127; 128
173; 228; 250; 253
216; 290; 265; 259
215; 285; 253; 255
197; 260; 254; 241
136; 207; 233; 247
83; 137; 133; 134
25; 53; 83; 118
0; 0; 1; 1
0; 0; 0; 0
0; 0; 0; 0
0; 0; 0; 0
0; 0; 0; 0
0; 0; 0; 0
14; 1; 0; 0
46; 46; 51; 59
108; 131; 131; 134
186; 249; 248; 245
231; 312; 284; 257
219; 294; 260; 254
198; 262; 254; 248
132; 217; 248; 247
75; 140; 141; 139
7; 35; 52; 73
0; 0; 0; 0
0; 0; 0; 0
0; 0; 0; 0
0; 0; 0; 0
0; 0; 0; 0
0; 0; 0; 0
16; 3; 0; 0
47; 50; 60; 76
101; 128; 131; 131
180; 238; 251; 256
233; 315; 288; 252
218; 295; 260; 260
203; 268; 258; 246
134; 189; 212; 225
76; 132; 132; 133
16; 42; 66; 99
0; 0; 0; 2
0; 0; 0; 0
0; 0; 0; 0
0; 0; 0; 0
0; 0; 0; 0
0; 0; 0; 0
16; 4; 0; 0
39; 42; 44; 53
100; 129; 128; 128
180; 240; 258; 242
231; 309; 279; 251
227; 302; 262; 249
207; 273; 250; 244
136; 194; 215; 233
80; 131; 135; 138
18; 46; 74; 110
0; 0; 0; 1
0; 0; 0; 0
0; 0; 0; 0
0; 0; 0; 0
0; 0; 0; 0
0; 0; 0; 0
16; 7; 1; 0
46; 54; 65; 86
105; 130; 130; 132
188; 245; 244; 247
230; 311; 276; 261
228; 302; 262; 253
202; 266; 261; 259
131; 209; 235; 252
69; 131; 132; 136
4; 28; 41; 53
0; 0; 0; 0
0; 0; 0; 0
0; 0; 0; 0
0; 0; 0; 0
0; 0; 0; 0
0; 0; 0; 0
13; 1; 0; 0
44; 48; 56; 73
103; 129; 132; 134
190; 248; 246; 251
243; 302; 273; 254
233; 303; 262; 255
209; 270; 261; 244
145; 206; 233; 247
81; 134; 160; 147
10; 31; 55; 77
0; 0; 0; 0
0; 0; 0; 0
0; 0; 0; 0
0; 0; 0; 0
0; 0; 0; 0
0; 0; 0; 0
10; 0; 0; 0
42; 48; 53; 70
109; 131; 129; 130
197; 252; 242; 243
244; 295; 262; 259
228; 295; 258; 257
206; 266; 259; 252
141; 198; 220; 248
73; 130; 130; 133
6; 29; 45; 63
0; 0; 0; 0
0; 0; 0; 0
0; 0; 0; 0
0; 0; 0; 0
0; 0; 0; 0
0; 0; 0; 0
6; 0; 0; 0
33; 28; 28; 31
88; 117; 130; 132
171; 224; 243; 256
242; 297; 266; 265
235; 306; 266; 258
215; 281; 253; 255
160; 233; 252; 232
101; 174; 181; 178
31; 73; 118; 134
0; 0; 13; 18
0; 0; 0; 0
0; 0; 0; 0
0; 0; 0; 0
0; 0; 0; 0
0; 0; 0; 0
23; 10; 6; 2
59; 71; 92; 123
132; 147; 133; 151
220; 260; 260; 250
243; 283; 261; 259
227; 288; 255; 257
200; 261; 257; 249
137; 187; 207; 218
69; 129; 135; 131
1; 21; 35; 45
0; 0; 0; 0
0; 0; 0; 0
0; 0; 0; 0
0; 0; 0; 0
0; 0; 0; 0
0; 0; 0; 0
23; 19; 18; 18
66; 88; 116; 127
130; 168; 172; 173
219; 279; 256; 250
242; 291; 260; 254
221; 284; 255; 259
187; 253; 249; 261
118; 190; 193; 202
50; 109; 132; 133
0; 9; 14; 18
0; 0; 0; 0
0; 0; 0; 0
0; 0; 0; 0
0; 0; 0; 0
0; 0; 0; 0
4; 0; 0; 0
32; 26; 25; 26
79; 109; 132; 118
160; 211; 232; 248
239; 319; 298; 262
232; 312; 277; 253
215; 285; 248; 258
165; 243; 241; 241
104; 182; 186; 175
34; 87; 130; 133
0; 0; 13; 17
0; 0; 0; 0
0; 0; 0; 0
0; 0; 0; 0
0; 0; 0; 0
0; 0; 0; 0
13; 1; 0; 0
43; 46; 49; 62
112; 132; 133; 138
207; 258; 242; 254
245; 318; 285; 253
220; 296; 255; 256
201; 265; 258; 256
133; 209; 235; 254
71; 131; 134; 151
5; 32; 46; 69
0; 0; 0; 0
0; 0; 0; 0
0; 0; 0; 0
0; 0; 0; 0
0; 0; 0; 0
0; 0; 0; 0
9; 0; 0; 0
38; 36; 33; 36
101; 129; 136; 132
191; 247; 258; 245
247; 303; 279; 257
237; 312; 268; 253
211; 275; 253; 256
148; 213; 244; 243
89; 145; 148; 134
22; 50; 75; 103
0; 0; 0; 2
0; 0; 0; 0
0; 0; 0; 0
0; 0; 0; 0
0; 0; 0; 0
0; 0; 0; 0
14; 2; 0; 0
39; 40; 43; 51
106; 131; 130; 127
198; 252; 249; 249
244; 316; 292; 258
228; 306; 268; 255
207; 276; 251; 243
139; 195; 216; 234
79; 130; 133; 135
14; 39; 64; 90
0; 0; 0; 0
0; 0; 0; 0
0; 0; 0; 0
0; 0; 0; 0
0; 0; 0; 0
0; 0; 0; 0
6; 0; 0; 0
42; 41; 44; 52
94; 121; 134; 125
178; 231; 248; 254
241; 295; 263; 259
232; 301; 258; 249
212; 280; 256; 252
153; 219; 250; 246
98; 160; 164; 153
26; 60; 94; 124
0; 0; 3; 4
0; 0; 0; 0
0; 0; 0; 0
0; 0; 0; 0
0; 0; 0; 0
0; 0; 0; 0
6; 0; 0; 0
33; 28; 26; 29
92; 122; 138; 128
174; 227; 251; 253
244; 302; 275; 254
239; 315; 271; 256
214; 285; 261; 251
165; 242; 257; 257
105; 181; 186; 188
30; 79; 122; 122
0; 0; 6; 4
0; 0; 0; 0
0; 0; 0; 0
0; 0; 0; 0
0; 0; 0; 0
0; 0; 0; 0
13; 1; 0; 0
46; 50; 57; 73
108; 129; 139; 136
196; 249; 256; 256
242; 295; 265; 249
232; 296; 258; 244
210; 269; 257; 256
142; 199; 225; 253
82; 133; 157; 142
9; 27; 50; 66
0; 0; 0; 0
0; 0; 0; 0
0; 0; 0; 0
0; 0; 0; 0
0; 0; 0; 0
0; 0; 0; 0
3; 0; 0; 0
36; 32; 35; 43
90; 122; 131; 125
169; 226; 246; 253
244; 303; 275; 257
238; 313; 272; 261
212; 278; 250; 254
157; 229; 251; 233
95; 166; 169; 158
31; 68; 109; 118
0; 0; 2; 2
0; 0; 0; 0
0; 0; 0; 0
0; 0; 0; 0
0; 0; 0; 0
0; 0; 0; 0
7; 0; 0; 0
37; 38; 41; 50
86; 118; 133; 122
166; 219; 247; 244
237; 318; 295; 259
238; 320; 287; 257
215; 288; 253; 257
163; 234; 255; 235
106; 182; 190; 190
35; 81; 126; 132
0; 0; 8; 14
0; 0; 0; 0
0; 0; 0; 0
0; 0; 0; 0
0; 0; 0; 0
0; 0; 0; 0
12; 0; 0; 0
43; 43; 45; 53
114; 127; 132; 136
204; 255; 241; 250
245; 318; 287; 253
226; 306; 269; 258
202; 270; 259; 247
134; 197; 218; 242
72; 133; 139; 134
6; 30; 50; 66
0; 0; 0; 0
0; 0; 0; 0
0; 0; 0; 0
0; 0; 0; 0
0; 0; 0; 0
0; 0; 0; 0
8; 0; 0; 0
41; 42; 47; 58
96; 126; 131; 128
174; 224; 249; 255
239; 321; 291; 255
239; 293; 261; 250
211; 268; 254; 249
159; 220; 247; 253
93; 155; 152; 134
26; 62; 91; 121
0; 0; 1; 2
0; 0; 0; 0
0; 0; 0; 0
0; 0; 0; 0
0; 0; 0; 0
0; 0; 0; 0
3; 0; 0; 0
39; 36; 37; 46
86; 118; 133; 127
168; 224; 246; 250
241; 294; 262; 255
233; 306; 264; 251
209; 275; 257; 245
160; 232; 259; 248
103; 178; 188; 190
32; 79; 118; 133
0; 0; 4; 5
0; 0; 0; 0
0; 0; 0; 0
0; 0; 0; 0
0; 0; 0; 0
0; 0; 0; 0
14; 1; 0; 0
44; 49; 57; 73
102; 129; 125; 134
190; 248; 257; 247
248; 305; 280; 252
239; 312; 271; 258
210; 276; 253; 254
144; 206; 229; 255
79; 133; 153; 137
10; 32; 57; 74
0; 0; 0; 0
0; 0; 0; 0
0; 0; 0; 0
0; 0; 0; 0
0; 0; 0; 0
0; 0; 0; 0
8; 0; 0; 0
42; 39; 43; 52
93; 127; 128; 127
178; 240; 261; 246
244; 301; 278; 258
237; 309; 265; 256
212; 276; 246; 258
156; 223; 251; 251
95; 160; 159; 144
31; 69; 104; 129
0; 0; 1; 1
0; 0; 0; 0
0; 0; 0; 0
0; 0; 0; 0
0; 0; 0; 0
0; 0; 0; 0
12; 0; 0; 0
43; 46; 54; 68
101; 131; 135; 138
192; 246; 260; 249
245; 318; 297; 263
228; 310; 273; 252
205; 270; 258; 247
144; 206; 238; 238
83; 137; 134; 148
17; 40; 58; 83
0; 0; 0; 0
0; 0; 0; 0
0; 0; 0; 0
0; 0; 0; 0
0; 0; 0; 0
0; 0; 0; 0
12; 0; 0; 0
43; 46; 53; 69
100; 132; 122; 126
193; 251; 256; 247
248; 300; 265; 257
236; 302; 261; 251
214; 280; 257; 253
151; 220; 249; 250
87; 150; 143; 139
20; 53; 76; 109
0; 0; 0; 1
0; 0; 0; 0
0; 0; 0; 0
0; 0; 0; 0
0; 0; 0; 0
0; 0; 0; 0
13; 1; 0; 0
48; 49; 57; 75
110; 133; 136; 137
200; 250; 249; 253
244; 295; 265; 257
236; 305; 261; 255
213; 280; 254; 251
140; 202; 223; 249
80; 134; 156; 146
5; 23; 43; 60
0; 0; 0; 0
0; 0; 0; 0
0; 0; 0; 0
0; 0; 0; 0
0; 0; 0; 0
0; 0; 0; 0
2; 0; 0; 0
37; 35; 36; 41
92; 128; 127; 128
177; 233; 253; 241
239; 323; 298; 264
236; 321; 288; 253
213; 288; 253; 249
156; 229; 246; 258
101; 172; 177; 174
25; 67; 104; 131
0; 0; 5; 3
0; 0; 0; 0
0; 0; 0; 0
0; 0; 0; 0
0; 0; 0; 0
0; 0; 0; 0
13; 4; 0; 0
45; 48; 57; 74
107; 131; 129; 133
196; 250; 255; 247
246; 301; 265; 257
236; 305; 261; 249
213; 282; 259; 247
142; 203; 230; 252
82; 137; 136; 134
9; 32; 50; 69
0; 0; 0; 0
0; 0; 0; 0
0; 0; 0; 0
0; 0; 0; 0
0; 0; 0; 0
0; 0; 0; 0
6; 0; 0; 0
34; 28; 29; 28
91; 121; 136; 131
164; 211; 235; 254
230; 305; 274; 265
228; 304; 263; 250
210; 278; 257; 254
158; 234; 260; 245
97; 168; 172; 158
33; 76; 117; 126
0; 0; 15; 21
0; 0; 0; 0
0; 0; 0; 0
0; 0; 0; 0
0; 0; 0; 0
0; 0; 0; 0
10; 0; 0; 0
48; 49; 55; 73
104; 131; 126; 131
186; 246; 246; 247
232; 314; 283; 262
227; 304; 262; 255
208; 276; 248; 259
134; 190; 208; 225
73; 129; 132; 132
9; 32; 52; 71
0; 0; 0; 0
0; 0; 0; 0
0; 0; 0; 0
0; 0; 0; 0
0; 0; 0; 0
0; 0; 0; 0
13; 0; 0; 0
43; 45; 53; 68
102; 127; 132; 130
184; 241; 257; 249
232; 310; 275; 266
222; 297; 263; 254
205; 272; 248; 255
144; 207; 231; 249
83; 140; 138; 132
19; 44; 66; 90
0; 0; 0; 0
0; 0; 0; 0
0; 0; 0; 0
0; 0; 0; 0
0; 0; 0; 0
0; 0; 0; 0
8; 0; 0; 0
36; 31; 32; 31
92; 124; 132; 129
163; 210; 232; 254
229; 303; 273; 258
222; 295; 263; 252
207; 270; 248; 253
152; 218; 243; 248
93; 156; 153; 136
35; 75; 113; 124
0; 0; 8; 7
0; 0; 0; 0
0; 0; 0; 0
0; 0; 0; 0
0; 0; 0; 0
0; 0; 0; 0
10; 0; 0; 0
37; 39; 39; 44
99; 125; 131; 128
169; 213; 234; 257
233; 309; 281; 252
228; 305; 267; 253
206; 273; 253; 246
146; 209; 243; 233
86; 141; 137; 131
19; 47; 69; 94
0; 0; 0; 3
0; 0; 0; 0
0; 0; 0; 0
0; 0; 0; 0
0; 0; 0; 0
0; 0; 0; 0
7; 0; 0; 0
37; 32; 31; 37
90; 120; 136; 132
160; 208; 228; 253
234; 312; 283; 253
229; 305; 262; 257
205; 271; 247; 262
157; 232; 254; 241
95; 166; 169; 153
34; 74; 114; 120
0; 0; 11; 12
0; 0; 0; 0
0; 0; 0; 0
0; 0; 0; 0
0; 0; 0; 0
0; 0; 0; 0
16; 4; 0; 0
43; 46; 51; 62
111; 134; 136; 127
195; 256; 255; 252
239; 321; 285; 263
234; 314; 272; 262
213; 284; 262; 253
140; 204; 231; 252
72; 129; 129; 138
12; 39; 52; 75
0; 0; 0; 0
0; 0; 0; 0
0; 0; 0; 0
0; 0; 0; 0
0; 0; 0; 0
0; 0; 0; 0
9; 0; 0; 0
38; 36; 38; 42
97; 124; 135; 129
176; 228; 251; 257
246; 298; 272; 265
238; 308; 262; 248
212; 273; 251; 263
148; 213; 241; 244
85; 144; 143; 131
22; 51; 77; 110
0; 0; 0; 2
0; 0; 0; 0
0; 0; 0; 0
0; 0; 0; 0
0; 0; 0; 0
0; 0; 0; 0
5; 0; 0; 0
39; 39; 40; 50
96; 127; 125; 128
171; 228; 251; 247
245; 302; 277; 255
238; 312; 269; 256
213; 284; 258; 246
159; 233; 254; 252
99; 173; 169; 160
33; 75; 119; 132
0; 0; 5; 3
0; 0; 0; 0
0; 0; 0; 0
0; 0; 0; 0
0; 0; 0; 0
0; 0; 0; 0
3; 0; 0; 0
36; 38; 41; 51
90; 125; 124; 127
170; 227; 250; 254
244; 302; 275; 255
231; 301; 259; 251
211; 277; 253; 246
159; 232; 255; 239
101; 172; 178; 173
28; 70; 113; 127
0; 0; 3; 2
0; 0; 0; 0
0; 0; 0; 0
0; 0; 0; 0
0; 0; 0; 0
0; 0; 0; 0
14; 4; 0; 0
43; 43; 50; 60
109; 133; 138; 131
200; 250; 254; 258
249; 303; 269; 266
234; 304; 261; 249
212; 281; 259; 248
139; 200; 224; 249
77; 132; 138; 132
14; 38; 57; 81
0; 0; 0; 0
0; 0; 0; 0
0; 0; 0; 0
0; 0; 0; 0
0; 0; 0; 0
0; 0; 0; 0
15; 3; 0; 0
48; 48; 52; 61
111; 128; 135; 135
197; 250; 260; 246
249; 323; 303; 262
222; 302; 265; 258
202; 265; 256; 263
140; 195; 218; 243
76; 133; 136; 135
11; 34; 58; 85
0; 0; 0; 0
0; 0; 0; 0
0; 0; 0; 0
0; 0; 0; 0
0; 0; 0; 0
0; 0; 0; 0
10; 0; 0; 0
47; 50; 60; 82
109; 134; 133; 137
197; 250; 255; 246
249; 302; 273; 253
237; 309; 263; 256
212; 276; 247; 252
142; 200; 221; 243
81; 132; 134; 146
9; 32; 43; 62
0; 0; 0; 0
0; 0; 0; 0
0; 0; 0; 0
0; 0; 0; 0
0; 0; 0; 0
0; 0; 0; 0
13; 0; 0; 0
43; 44; 52; 68
104; 132; 129; 131
196; 249; 259; 253
247; 321; 292; 256
229; 312; 273; 250
204; 271; 250; 258
145; 211; 240; 231
81; 141; 138; 131
17; 41; 62; 87
0; 0; 0; 0
0; 0; 0; 0
0; 0; 0; 0
0; 0; 0; 0
0; 0; 0; 0
0; 0; 0; 0
5; 0; 0; 0
40; 38; 38; 46
88; 125; 123; 122
175; 235; 251; 238
249; 306; 286; 258
234; 310; 270; 255
209; 278; 257; 244
160; 232; 258; 245
103; 174; 181; 181
24; 66; 101; 133
0; 0; 2; 4
0; 0; 0; 0
0; 0; 0; 0
0; 0; 0; 0
0; 0; 0; 0
0; 0; 0; 0
13; 2; 0; 0
45; 48; 57; 74
106; 130; 126; 134
198; 253; 255; 251
251; 310; 279; 257
239; 286; 256; 253
216; 273; 247; 253
147; 203; 229; 252
78; 130; 128; 131
9; 32; 43; 54
0; 0; 0; 0
0; 0; 0; 0
0; 0; 0; 0
0; 0; 0; 0
0; 0; 0; 0
0; 0; 0; 0
9; 0; 0; 0
33; 31; 27; 31
93; 127; 126; 127
178; 239; 254; 243
245; 305; 277; 256
243; 293; 257; 252
216; 275; 254; 246
165; 234; 256; 253
102; 176; 174; 166
30; 71; 112; 124
0; 0; 5; 3
0; 0; 0; 0
0; 0; 0; 0
0; 0; 0; 0
0; 0; 0; 0
0; 0; 0; 0
14; 2; 0; 0
46; 52; 57; 75
111; 134; 132; 138
197; 251; 259; 251
247; 318; 297; 260
224; 301; 266; 248
204; 270; 262; 245
142; 203; 230; 255
78; 131; 136; 149
11; 39; 56; 81
0; 0; 0; 0
0; 0; 0; 0
0; 0; 0; 0
0; 0; 0; 0
0; 0; 0; 0
0; 0; 0; 0
15; 2; 0; 0
42; 44; 47; 58
109; 134; 128; 133
201; 254; 248; 246
248; 305; 277; 255
238; 314; 271; 254
213; 279; 251; 248
143; 206; 230; 250
80; 136; 159; 146
13; 35; 63; 87
0; 0; 0; 0
0; 0; 0; 0
0; 0; 0; 0
0; 0; 0; 0
0; 0; 0; 0
0; 0; 0; 0
14; 0; 0; 0
50; 52; 61; 77
111; 123; 131; 132
