## File generated by myo_cap software
## Available from github.com/ddantas/myo_cap
## Timestamp: 2018-05-23_20-57-32
##
## EMG capture settings##
# sampleRate: 2000.0
# channelsPerBoard: 4.0
# nBoards: 1.0
# bitsPerSample: 12.0
##
## Data
## t; ch0; ch1; ch2; ch3
2 176 166
0 1 0 0
0 0 0 0
0 0 0 0
0 0 0 0
0 0 0 0
0 0 0 0
0 0 0 0
2 0 0 0
14 4 0 0
26 20 13 6
68 87 117 124
135 156 159 153
195 256 246 259
252 313 295 262
236 315 283 253
174 256 246 246
93 164 158 133
0 0 0 0
0 0 0 0
0 0 5
254 302 277 258
215 276 253 250
151 213 244 239
33 91 135 129
0 0 0 0
0 0 0 0
0 0 0 0
0 0 0 0
0 0 0 0
0 0 0 0
0 0 0 0
13 1 0 0
23 16 9 1
49 62 73 98
118 133 134 131
175 220 244 243
252 312 299 267
252 332 314 265
198 267 261 238
131 202 217 234
0 36 62 95
0 0 0 0
0 0 0 0
0 0 0 0
0 0 0 0
0 0 0 0
0 0 0 0
2 0 0 0
17 2 0 0
32 26 21 20
69 88 115 125
133 164 160 154
204 258 256 255
252 307 287 256
233 311 271 257
171 251 255 249
93 163 147 135
0 0 0 0
0 0 0 0
0 0 0 0
0 0 0 0
0 0 0 0
0 0 0 0
0 0 0 0
6 0 0 0
14 1 0 0
35 31 29 31
79 109 129 131
139 173 180 178
213 266 257 262
252 319 301 260
220 302 265 252
159 238 260 245
60 134 142 131
0 0 0 0
0 0 0 0
0 0 0 0
0 0 0 0
0 0 0 0
0 0 0 0
1 0 0 0
8 0 0 0
20 10 1 0
47 51 60 74
105 129 127 133
162 209 221 246
249 303 278 259
255 313 283 255
208 270 257 246
130 190 201 212
7 41 63 92
0 0 0 0
0 0 0 0
0 0 0 0
0 0 0 0
0 0 0 0
0 0 0 0
3 0 0 0
9 0 0 0
18 7 0 0
44 48 53 65
102 130 125 135
167 215 241 236
246 328 312 281
253 340 333 299
203 284 259 253
136 204 223 241
13 56 99 130
0 0 0 0
0 0 0 0
0 0 0 0
0 0 0 0
0 0 0 0
0 0 0 0
6 0 0 0
11 1 0 0
25 13 7 1
61 76 96 123
128 139 132 134
188 241 256 246
253 316 297 267
246 304 273 247
193 257 255 244
123 167 172 159
0 0 0 0
0 0 0 0
0 0 0 0
0 0 0 0
0 0 0 0
0 0 0 0
0 0 0 0
2 0 0 0
17 4 0 0
29 19 16 4
71 91 120 129
135 160 166 164
202 251 252 255
255 301 277 256
240 314 273 246
184 250 254 239
100 162 151 133
0 0 0 0
0 0 0 0
0 0 0 0
0 0 0 0
0 0 0 0
0 0 0 0
0 0 0 0
7 0 0 0
12 3 0 0
32 29 30 34
85 115 122 123
140 178 184 190
212 271 253 247
251 301 279 254
220 288 253 255
159 228 250 252
53 122 139 124
0 0 0 0
0 0 0 0
0 0 0 0
0 0 0 0
0 0 0 0
0 0 0 0
1 0 0 0
5 0 0 0
22 11 2 0
44 52 59 74
109 131 137 138
171 210 240 233
250 324 313 279
254 314 302 260
200 263 256 248
133 189 197 205
7 39 61 86
0 0 0 0
0 0 0 0
0 0 0 0
0 0 0 0
0 0 0 0
0 0 0 0
1 0 0 0
11 0 0 0
18 7 0 0
44 45 49 53
108 129 133 134
168 206 225 247
246 315 295 261
249 327 308 266
194 265 257 248
128 196 210 216
0 39 61 91
0 0 0 0
0 0 0 0
0 0 0 0
0 0 0 0
0 0 0 0
0 0 0 0
2 0 0 0
15 4 0 0
22 13 3 0
51 65 70 94
121 148 138 132
178 234 254 231
251 334 324 290
249 322 309 268
199 260 256 262
128 171 172 167
0 3 2 0
0 0 0 0
0 0 0 0
0 0 0 0
0 0 0 0
0 0 0 0
0 0 0 0
1 0 0 0
15 1 0 0
25 18 11 4
55 67 84 112
125 133 146 131
186 236 259 246
253 314 304 273
242 299 270 257
191 253 242 252
128 181 184 179
0 3 2 0
0 0 0 0
0 0 0 0
0 0 0 0
0 0 0 0
0 0 0 0
0 0 0 0
1 0 0 0
14 3 0 0
25 20 15 11
72 89 119 128
132 156 153 140
202 251 255 250
255 302 284 250
242 288 258 245
183 252 255 254
101 161 146 127
0 0 0 0
0 0 0 0
0 0 0 0
0 0 0 0
0 0 0 0
0 0 0 0
0 0 0 0
2 0 0 0
20 6 0 0
37 38 37 41
87 122 132 130
147 187 201 217
215 280 249 262
254 307 279 257
221 288 253 257
160 233 249 224
52 127 130 132
0 0 0 0
0 0 0 0
0 0 0 0
0 0 0 0
0 0 0 0
0 0 0 0
0 0 0 0
13 0 0 0
20 8 1 0
44 44 47 52
105 132 125 133
169 219 248 247
250 330 324 301
254 316 305 266
200 263 257 233
133 178 183 184
3 30 44 57
0 0 0 0
0 0 0 0
0 0 0 0
0 0 0 0
0 0 0 0
0 0 0 0
2 0 0 0
15 2 0 0
28 19 14 5
66 78 105 128
134 146 143 133
191 246 257 248
256 305 289 261
242 292 260 252
190 258 246 252
115 180 177 159
0 1 1 0
0 0 0 0
0 0 0 0
0 0 0 0
0 0 0 0
0 0 0 0
0 0 0 0
7 0 0 0
13 1 0 0
30 26 22 25
70 92 116 133
133 160 157 149
203 255 250 251
252 307 281 253
233 305 269 250
170 246 259 244
85 148 135 129
0 0 0 0
0 0 0 0
0 0 0 0
0 0 0 0
0 0 0 0
0 0 0 0
0 0 0 0
6 0 0 0
12 1 0 0
29 27 20 18
88 119 121 121
148 192 204 217
216 283 256 256
249 327 300 264
213 293 262 256
159 236 254 236
46 118 133 133
0 0 0 0
0 0 0 0
0 0 0 0
0 0 0 0
0 0 0 0
0 0 0 0
3 0 0 0
17 1 0 0
24 19 13 4
54 66 80 108
123 133 143 133
181 229 248 262
252 313 298 266
246 302 272 259
195 253 261 246
129 176 188 190
0 6 11 5
0 0 0 0
0 0 0 0
0 0 0 0
0 0 0 0
0 0 0 0
0 0 0 0
5 0 0 0
11 2 0 0
24 13 5 0
54 65 78 99
123 130 141 136
174 216 245 239
249 327 313 284
242 306 284 260
196 258 245 255
131 181 186 186
0 8 13 7
0 0 0 0
0 0 0 0
0 0 0 0
0 0 0 0
0 0 0 0
0 0 0 0
5 0 0 0
16 4 0 0
31 24 21 21
68 90 113 130
132 157 153 145
203 252 256 253
252 326 310 272
230 312 280 252
172 255 253 252
88 155 135 137
0 0 0 0
0 0 0 0
0 0 0 0
0 0 0 0
0 0 0 0
0 0 0 0
0 0 0 0
8 0 0 0
23 8 2 0
34 33 26 26
80 112 132 122
141 183 194 204
218 283 255 254
252 306 281 256
224 296 262 249
161 233 252 225
60 126 139 127
0 0 0 0
0 0 0 0
0 0 0 0
0 0 0 0
0 0 0 0
0 0 0 0
0 0 0 0
7 0 0 0
16 3 0 0
38 37 34 35
92 128 124 125
155 199 214 241
237 309 281 250
252 315 289 253
212 280 263 249
137 197 219 237
21 71 119 130
0 0 0 0
0 0 0 0
0 0 0 0
0 0 0 0
0 0 0 0
0 0 0 0
2 0 0 0
17 4 0 0
24 12 5 0
53 63 72 94
122 148 132 135
170 225 244 245
252 310 291 260
245 321 298 254
190 260 255 233
128 185 191 192
0 15 23 26
0 0 0 0
0 0 0 0
0 0 0 0
0 0 0 0
0 0 0 0
0 0 0 0
2 0 0 0
15 5 0 0
26 22 13 7
66 84 105 129
129 152 151 135
197 254 243 246
252 310 288 256
234 309 271 258
173 253 260 240
92 158 152 135
0 0 0 0
0 0 0 0
0 0 0 0
0 0 0 0
0 0 0 0
0 0 0 0
0 0 0 0
3 0 0 0
17 4 0 0
29 27 20 18
84 117 120 120
148 187 194 208
222 286 258 262
253 311 286 255
222 295 262 249
157 231 257 237
59 126 134 131
0 0 0 0
0 0 0 0
0 0 0 0
0 0 0 0
0 0 0 0
0 0 0 0
1 0 0 0
12 0 0 0
22 19 7 1
52 62 73 96
115 129 134 135
179 224 244 254
252 308 289 257
250 331 312 266
197 267 259 242
127 199 209 221
0 38 65 94
0 0 0 0
0 0 0 0
0 0 0 0
0 0 0 0
0 0 0 0
0 0 0 0
4 0 0 0
11 1 0 0
23 13 1 0
53 60 67 88
120 145 136 138
171 223 247 247
251 311 302 272
248 302 277 251
193 255 255 241
129 183 194 193
0 14 22 24
0 0 0 0
0 0 0 0
0 0 0 0
0 0 0 0
0 0 0 0
0 0 0 0
2 0 0 0
17 6 0 0
37 32 29 33
84 111 130 126
145 185 195 206
214 270 260 250
252 325 299 257
220 299 259 247
166 246 241 245
67 131 129 127
0 0 0 0
0 0 0 0
0 0 0 0
0 0 0 0
0 0 0 0
0 0 0 0
2 0 0 0
11 0 0 0
12 4 0 0
38 36 35 37
95 129 130 126
159 204 220 244
243 297 271 269
256 310 284 255
214 276 252 244
143 202 227 248
16 60 104 131
0 0 0 0
0 0 0 0
0 0 0 0
0 0 0 0
0 0 0 0
0 0 0 0
6 0 0 0
13 0 0 0
27 21 18 9
62 77 100 124
128 164 159 152
195 254 253 254
253 309 288 259
238 321 288 261
184 257 252 255
106 173 164 143
0 0 0 0
0 0 0 0
0 0 0 0
0 0 0 0
0 0 0 0
0 0 0 0
0 0 0 0
8 0 0 0
10 2 0 0
31 30 27 29
77 103 125 131
139 173 181 187
206 260 258 259
254 297 273 254
215 279 257 254
159 224 245 255
64 130 130 134
0 0 0 0
0 0 0 0
0 0 0 0
0 0 0 0
0 0 0 0
0 0 0 0
1 0 0 0
10 0 0 0
21 13 2 0
46 56 63 80
111 139 130 129
164 209 221 248
249 307 282 260
256 312 288 252
198 262 254 259
130 193 209 227
4 42 68 108
0 0 0 0
0 0 0 0
0 0 0 0
0 0 0 0
0 0 0 0
0 0 0 0
1 0 0 0
14 2 0 0
22 12 3 0
56 72 86 117
129 142 134 141
187 245 244 248
254 318 305 273
244 299 270 257
189 253 245 253
127 182 181 176
0 4 3 0
0 0 0 0
0 0 0 0
0 0 0 0
0 0 0 0
0 0 0 0
0 0 0 0
3 0 0 0
9 0 0 0
20 7 0 0
50 58 66 86
119 133 136 130
177 221 248 240
253 313 301 266
253 331 314 266
195 267 257 237
131 182 196 200
0 17 28 34
0 0 0 0
0 0 0 0
0 0 0 0
0 0 0 0
0 0 0 0
0 0 0 0
6 0 0 0
12 0 0 0
26 14 3 0
55 66 77 101
130 141 137 137
191 245 246 241
257 317 308 267
249 310 283 257
192 256 258 252
126 172 173 163
0 1 0 0
0 0 0 0
0 0 0 0
0 0 0 0
0 0 0 0
0 0 0 0
0 0 0 0
1 0 0 0
16 2 0 0
29 23 19 18
73 93 120 128
134 160 158 145
205 258 256 256
253 309 289 262
237 314 275 249
181 255 257 241
99 162 156 134
0 0 0 0
0 0 0 0
0 0 0 0
0 0 0 0
0 0 0 0
0 0 0 0
0 0 0 0
5 0 0 0
12 2 0 0
27 20 14 6
69 88 116 123
136 165 172 169
204 257 260 253
253 307 288 258
230 300 260 248
175 249 248 245
84 147 132 127
0 0 0 0
0 0 0 0
0 0 0 0
0 0 0 0
0 0 0 0
0 0 0 0
0 0 0 0
9 0 0 0
14 1 0 0
35 26 21 14
88 121 122 124
148 194 204 223
220 289 261 263
252 311 288 253
214 285 259 253
160 232 256 239
51 122 142 130
0 0 0 0
0 0 0 0
0 0 0 0
0 0 0 0
0 0 0 0
0 0 0 0
2 0 0 0
11 0 0 0
26 14 7 0
51 58 68 85
121 134 137 133
176 227 244 245
252 330 313 275
250 319 300 253
204 270 261 241
130 179 187 188
0 22 33 37
0 0 0 0
0 0 0 0
0 0 0 0
0 0 0 0
0 0 0 0
0 0 0 0
2 0 0 0
9 0 0 0
19 8 1 0
48 56 65 86
112 133 128 138
174 218 239 227
253 310 296 261
251 326 303 254
196 264 256 262
127 191 201 208
0 29 50 67
0 0 0 0
0 0 0 0
0 0 0 0
0 0 0 0
0 0 0 0
0 0 0 0
2 0 0 0
15 2 0 0
21 14 2 0
53 62 76 99
124 131 136 134
179 228 253 257
252 313 301 266
246 302 272 259
193 250 259 246
132 178 189 190
0 2 8 1
0 0 0 0
0 0 0 0
0 0 0 0
0 0 0 0
0 0 0 0
0 0 0 0
1 0 0 0
14 0 0 0
26 15 13 5
57 69 90 121
127 143 136 142
192 248 246 252
257 313 291 253
247 305 271 256
192 254 257 256
124 166 161 149
0 0 0 0
0 0 0 0
0 0 0 0
0 0 0 0
0 0 0 0
0 0 0 0
0 0 0 0
5 0 0 0
14 0 0 0
22 13 3 0
65 74 97 121
126 155 149 136
186 245 258 245
251 310 298 265
242 294 266 248
187 257 248 255
117 187 186 179
0 8 8 2
0 0 0 0
0 0 0 0
0 0 0 0
0 0 0 0
0 0 0 0
0 0 0 0
2 0 0 0
16 2 0 0
24 15 5 0
61 74 95 125
128 139 131 136
194 248 243 252
253 314 291 257
242 298 262 256
188 256 243 242
122 197 203 203
0 11 16 16
0 0 0 0
0 0 0 0
0 0 0 0
0 0 0 0
0 0 0 0
0 0 0 0
9 0 0 0
24 9 4 0
38 40 43 51
87 121 131 124
147 190 204 220
228 297 267 252
255 313 296 259
219 292 259 253
153 224 247 250
44 115 128 130
0 0 0 0
0 0 0 0
0 0 0 0
0 0 0 0
0 0 0 0
0 0 0 0
1 0 0 0
13 1 0 0
23 14 5 1
55 65 77 104
119 144 130 130
177 235 252 236
253 336 325 294
247 331 319 277
184 258 257 240
128 184 195 197
0 17 27 34
0 0 0 0
0 0 0 0
0 0 0 0
0 0 0 0
0 0 0 0
0 0 0 0
5 0 0 0
11 1 0 0
26 19 10 2
66 82 109 112
134 158 163 159
199 249 261 253
253 303 291 255
230 299 265 246
179 251 253 255
92 159 142 128
0 0 0 0
0 0 0 0
0 0 0 0
0 0 0 0
0 0 0 0
0 0 0 0
0 0 0 0
11 0 0 0
18 6 1 0
34 31 27 27
86 118 123 123
148 196 205 225
229 302 269 266
254 333 307 265
223 304 264 259
158 232 248 248
43 116 129 133
0 0 0 0
0 0 0 0
0 0 0 0
0 0 0 0
0 0 0 0
0 0 0 0
0 0 0 0
8 0 0 0
16 3 0 0
46 47 54 66
109 132 133 128
170 218 241 231
253 332 322 293
252 318 309 267
198 258 259 253
132 186 202 213
4 38 61 87
0 0 0 0
0 0 0 0
0 0 0 0
0 0 0 0
0 0 0 0
0 0 0 0
2 0 0 0
9 0 0 0
20 7 1 0
44 50 57 73
107 134 137 132
170 212 239 236
249 308 289 256
256 314 292 262
208 269 255 257
133 187 196 196
2 31 50 63
0 0 0 0
0 0 0 0
0 0 0 0
0 0 0 0
0 0 0 0
0 0 0 0
2 0 0 0
13 1 0 0
22 15 8 1
55 68 84 114
126 132 151 141
179 219 246 252
255 312 296 266
248 323 301 257
188 260 247 261
126 174 179 171
0 3 5 0
0 0 0 0
0 0 0 0
0 0 0 0
0 0 0 0
0 0 0 0
0 0 0 0
1 0 0 0
12 0 0 0
22 15 4 1
54 64 74 102
126 130 142 133
175 215 242 240
252 307 294 266
249 309 281 255
195 258 260 255
126 175 177 170
0 4 4 0
0 0 0 0
0 0 0 0
0 0 0 0
0 0 0 0
0 0 0 0
0 0 0 0
0 0 0 0
16 1 0 0
24 17 10 4
54 68 84 112
129 142 134 137
190 242 251 252
255 311 287 258
250 309 275 246
198 254 253 252
129 173 173 165
0 3 0 0
0 0 0 0
0 0 0 0
0 0 0 0
0 0 0 0
0 0 0 0
0 0 0 0
1 0 0 0
15 1 0 0
28 22 18 14
72 93 118 133
137 163 165 159
205 257 257 255
254 308 289 257
231 309 265 259
177 256 240 232
100 169 164 137
0 0 0 0
0 0 0 0
0 0 0 0
0 0 0 0
0 0 0 0
0 0 0 0
0 0 0 0
3 0 0 0
23 7 2 0
37 38 38 43
91 122 135 132
144 180 189 200
228 288 255 259
253 310 285 253
219 283 258 258
159 233 250 232
50 122 137 136
0 0 0 0
0 0 0 0
0 0 0 0
0 0 0 0
0 0 0 0
0 0 0 0
3 0 0 0
14 3 0 0
16 8 0 0
40 43 45 49
105 129 127 129
164 211 232 245
250 325 314 281
254 312 299 256
198 263 255 247
130 188 198 209
1 34 56 81
0 0 0 0
0 0 0 0
0 0 0 0
0 0 0 0
0 0 0 0
0 0 0 0
7 0 0 0
12 1 0 0
28 18 13 7
65 80 103 132
131 141 138 134
186 244 241 242
252 316 302 268
240 293 265 256
184 255 257 252
114 165 160 136
0 0 0 0
0 0 0 0
0 0 0 0
0 0 0 0
0 0 0 0
0 0 0 0
0 0 0 0
7 0 0 0
13 1 0 0
31 25 22 21
77 104 127 132
135 165 171 170
209 261 258 254
252 321 300 257
228 299 261 257
172 251 254 242
76 132 147 130
0 0 0 0
0 0 0 0
0 0 0 0
0 0 0 0
0 0 0 0
0 0 0 0
0 0 0 0
3 0 0 0
19 8 1 0
38 41 43 50
97 126 130 134
154 198 217 241
232 301 272 263
254 315 288 253
215 287 252 256
150 223 250 241
38 102 134 128
0 0 0 0
0 0 0 0
0 0 0 0
0 0 0 0
0 0 0 0
0 0 0 0
3 0 0 0
9 0 0 0
15 7 0 0
44 49 56 71
106 127 130 131
168 204 224 242
246 314 293 254
249 328 309 263
191 260 257 259
135 182 196 205
0 30 47 66
0 0 0 0
0 0 0 0
0 0 0 0
0 0 0 0
0 0 0 0
0 0 0 0
3 0 0 0
10 0 0 0
21 15 7 3
56 71 81 117
127 135 154 147
183 232 254 241
253 333 321 292
246 307 283 255
189 251 254 243
129 176 186 187
0 5 6 2
0 0 0 0
0 0 0 0
0 0 0 0
0 0 0 0
0 0 0 0
0 0 0 0
2 0 0 0
14 2 0 0
25 20 13 8
60 70 89 117
127 156 147 134
184 247 254 242
251 309 297 267
242 295 262 256
187 255 246 250
120 176 179 172
0 2 3 0
0 0 0 0
0 0 0 0
0 0 0 0
0 0 0 0
0 0 0 0
0 0 0 0
2 0 0 0
11 1 0 0
25 13 7 1
63 75 94 121
127 146 134 153
193 249 247 245
250 339 326 292
242 308 285 263
191 257 253 257
119 188 189 187
0 6 5 1
0 0 0 0
0 0 0 0
0 0 0 0
0 0 0 0
0 0 0 0
0 0 0 0
6 0 0 0
10 0 0 0
29 21 18 18
70 88 112 125
135 163 159 157
207 260 245 257
256 305 279 261
232 308 262 256
172 252 258 238
88 151 140 127
0 0 0 0
0 0 0 0
0 0 0 0
0 0 0 0
0 0 0 0
0 0 0 0
0 0 0 0
11 0 0 0
13 2 0 0
33 30 24 19
89 118 133 125
147 188 197 210
222 287 261 264
252 308 284 253
219 287 251 257
156 220 247 241
46 118 130 131
0 0 0 0
0 0 0 0
0 0 0 0
0 0 0 0
0 0 0 0
0 0 0 0
1 0 0 0
14 2 0 0
19 8 1 0
45 46 52 60
114 131 133 132
171 211 229 249
254 303 284 259
249 323 297 256
199 264 262 238
133 182 195 196
0 26 43 54
0 0 0 0
0 0 0 0
0 0 0 0
0 0 0 0
0 0 0 0
0 0 0 0
3 0 0 0
10 0 0 0
25 15 7 2
53 63 71 94
120 145 138 133
178 233 251 239
252 333 318 289
245 330 318 272
188 262 260 241
123 176 185 172
0 11 15 8
0 0 0 0
0 0 0 0
0 0 0 0
0 0 0 0
0 0 0 0
0 0 0 0
6 0 0 0
16 4 0 0
26 20 13 3
72 90 118 131
135 160 160 160
202 256 251 248
257 309 288 259
239 291 259 253
183 250 257 245
100 163 156 134
0 0 0 0
0 0 0 0
0 0 0 0
0 0 0 0
0 0 0 0
0 0 0 0
0 0 0 0
3 0 0 0
17 7 0 0
32 28 24 24
84 117 124 125
138 180 186 192
219 283 254 259
251 304 279 263
219 284 255 259
157 226 243 246
54 123 138 127
0 0 0 0
0 0 0 0
0 0 0 0
0 0 0 0
0 0 0 0
0 0 0 0
1 0 0 0
13 0 0 0
21 14 5 2
52 58 70 91
112 129 137 134
176 225 244 245
252 310 291 260
249 327 302 257
194 260 256 253
128 198 211 226
0 30 53 72
0 0 0 0
0 0 0 0
0 0 0 0
0 0 0 0
0 0 0 0
0 0 0 0
3 0 0 0
11 0 0 0
23 11 3 0
57 73 87 120
128 140 138 142
182 232 251 232
255 309 291 263
240 323 291 260
196 263 255 231
124 174 173 158
0 1 0 0
0 0 0 0
0 0 0 0
0 0 0 0
0 0 0 0
0 0 0 0
0 0 0 0
3 0 0 0
9 0 0 0
17 7 0 0
50 55 63 79
113 129 131 134
179 222 249 245
252 310 299 265
250 305 281 258
192 257 253 254
129 202 216 231
0 32 54 79
0 0 0 0
0 0 0 0
0 0 0 0
0 0 0 0
0 0 0 0
0 0 0 0
0 0 0 0
11 0 0 0
29 20 15 12
68 91 120 130
136 158 164 153
204 254 253 258
252 309 285 262
235 307 265 256
185 254 242 247
96 166 149 133
0 0 0 0
0 0 0 0
0 0 0 0
0 0 0 0
0 0 0 0
0 0 0 0
0 0 0 0
6 0 0 0
20 6 0 0
27 27 20 17
78 104 126 130
142 178 185 201
217 272 262 263
252 326 308 268
221 295 263 246
164 240 258 248
63 132 136 125
0 0 0 0
0 0 0 0
0 0 0 0
0 0 0 0
0 0 0 0
0 0 0 0
1 0 0 0
7 0 0 0
21 9 2 0
41 41 40 44
99 130 137 133
157 195 217 240
241 287 268 257
255 307 284 256
214 280 260 248
142 202 228 242
25 79 124 129
0 0 0 0
0 0 0 0
0 0 0 0
0 0 0 0
0 0 0 0
0 0 0 0
3 0 0 0
10 0 0 0
22 18 9 5
56 68 83 116
125 130 142 132
183 232 250 231
253 314 298 260
246 302 272 259
193 255 260 242
127 181 191 184
0 3 7 0
0 0 0 0
0 0 0 0
0 0 0 0
0 0 0 0
0 0 0 0
0 0 0 0
1 0 0 0
14 1 0 0
25 19 12 5
63 78 104 128
126 159 153 134
184 251 259 248
254 313 301 266
241 297 269 256
185 258 250 245
113 168 165 144
0 0 0 0
0 0 0 0
0 0 0 0
0 0 0 0
0 0 0 0
0 0 0 0
0 0 0 0
5 0 0 0
18 6 0 0
34 30 27 28
77 107 132 129
133 168 175 173
203 258 265 250
252 306 287 254
225 297 261 246
169 247 244 247
75 138 128 131
0 0 0 0
0 0 0 0
0 0 0 0
0 0 0 0
0 0 0 0
0 0 0 0
1 0 0 0
9 0 0 0
22 11 2 0
38 39 41 43
101 130 133 128
163 205 230 252
245 315 298 266
250 340 330 299
207 284 257 241
136 193 211 217
14 58 95 129
0 0 0 0
0 0 0 0
0 0 0 0
0 0 0 0
0 0 0 0
0 0 0 0
6 0 0 0
17 4 0 0
23 12 3 0
59 68 83 114
128 133 148 136
182 227 252 259
254 313 299 268
246 301 268 261
198 253 248 255
129 175 177 171
0 6 4 0
0 0 0 0
0 0 0 0
0 0 0 0
0 0 0 0
0 0 0 0
0 0 0 0
5 0 0 0
13 3 0 0
25 20 12 5
60 71 92 120
129 145 135 155
191 249 247 244
254 319 306 271
241 297 265 257
192 253 262 253
123 185 193 190
0 3 5 0
0 0 0 0
0 0 0 0
0 0 0 0
0 0 0 0
0 0 0 0
0 0 0 0
1 0 0 0
15 3 0 0
29 25 20 16
75 99 129 128
133 164 168 163
206 255 256 249
256 304 284 252
231 305 262 259
182 258 248 242
93 159 151 127
0 0 0 0
0 0 0 0
0 0 0 0
0 0 0 0
0 0 0 0
0 0 0 0
0 0 0 0
4 0 0 0
10 1 0 0
32 28 26 26
84 115 116 131
141 176 179 181
215 270 265 256
252 325 304 266
220 303 263 248
159 238 251 251
54 126 137 132
0 0 0 0
0 0 0 0
0 0 0 0
0 0 0 0
0 0 0 0
0 0 0 0
1 0 0 0
15 1 0 0
18 5 1 0
46 50 58 72
104 128 122 132
168 214 234 254
250 326 315 287
251 316 304 266
199 266 257 241
130 184 196 190
3 34 52 71
0 0 0 0
0 0 0 0
0 0 0 0
0 0 0 0
0 0 0 0
0 0 0 0
0 0 0 0
8 0 0 0
21 10 1 0
45 48 53 65
116 131 134 135
172 213 231 251
251 304 289 254
251 326 303 255
199 269 247 257
133 179 187 180
0 21 29 32
0 0 0 0
0 0 0 0
0 0 0 0
0 0 0 0
0 0 0 0
0 0 0 0
4 0 0 0
11 1 0 0
21 8 1 0
52 59 71 91
120 130 133 145
181 221 249 250
253 311 301 269
245 320 296 257
191 262 252 259
131 195 208 223
1 30 49 76
0 0 0 0
0 0 0 0
0 0 0 0
0 0 0 0
0 0 0 0
0 0 0 0
5 0 0 0
10 0 0 0
31 23 20 17
76 97 129 126
132 167 173 174
202 257 260 253
252 309 290 261
226 300 258 251
177 251 252 247
92 155 142 131
0 0 0 0
0 0 0 0
0 0 0 0
0 0 0 0
0 0 0 0
0 0 0 0
0 0 0 0
2 0 0 0
19 2 1 0
39 33 33 34
90 119 131 128
146 193 207 226
219 284 253 261
253 327 308 269
216 296 259 250
163 242 255 245
59 130 146 136
0 0 0 0
0 0 0 0
0 0 0 0
0 0 0 0
0 0 0 0
0 0 0 0
0 0 0 0
8 0 0 0
21 10 3 0
47 54 61 79
109 135 134 138
171 212 236 252
250 320 306 268
254 316 301 257
200 267 257 240
134 187 205 217
7 39 65 96
0 0 0 0
0 0 0 0
0 0 0 0
0 0 0 0
0 0 0 0
0 0 0 0
1 0 0 0
16 1 0 0
24 18 8 2
56 67 82 111
126 134 151 139
180 219 246 250
255 311 297 269
244 316 292 251
181 254 251 252
124 177 178 174
0 8 9 3
0 0 0 0
0 0 0 0
0 0 0 0
0 0 0 0
0 0 0 0
0 0 0 0
1 0 0 0
15 1 0 0
18 8 1 0
46 46 50 60
115 127 137 136
175 211 240 230
255 304 290 256
253 304 279 257
196 259 251 255
131 176 184 173
0 21 34 35
0 0 0 0
0 0 0 0
0 0 0 0
0 0 0 0
0 0 0 0
0 0 0 0
4 0 0 0
10 0 0 0
26 19 13 8
66 84 108 120
126 168 164 160
194 255 255 245
252 310 296 262
240 292 264 255
189 253 245 253
114 166 157 140
0 0 0 0
0 0 0 0
0 0 0 0
0 0 0 0
0 0 0 0
0 0 0 0
0 0 0 0
5 0 0 0
12 1 0 0
28 20 14 3
74 95 122 121
136 169 173 176
208 259 255 245
253 312 291 263
228 302 265 246
177 250 253 249
87 154 134 135
0 0 0 0
0 0 0 0
0 0 0 0
0 0 0 0
0 0 0 0
0 0 0 0
0 0 0 0
7 0 0 0
15 1 0 0
34 25 22 16
86 119 124 121
148 191 203 212
228 293 265 256
253 314 293 259
219 288 251 259
162 235 254 238
50 122 138 124
0 0 0 0
0 0 0 0
0 0 0 0
0 0 0 0
0 0 0 0
0 0 0 0
3 0 0 0
10 0 0 0
21 15 4 0
54 60 73 94
118 131 134 135
179 227 247 251
251 312 293 263
248 313 284 258
204 264 253 252
133 176 178 175
0 21 30 34
0 0 0 0
0 0 0 0
0 0 0 0
0 0 0 0
0 0 0 0
0 0 0 0
3 0 0 0
17 4 0 0
25 14 7 1
54 68 81 109
125 133 145 132
188 235 261 247
252 310 293 262
249 304 275 248
197 254 249 247
126 173 167 156
0 1 0 0
0 0 0 0
0 0 0 0
0 0 0 0
0 0 0 0
0 0 0 0
0 0 0 0
5 0 0 0
16 4 0 0
26 16 7 2
60 75 95 121
126 137 130 131
188 242 257 252
251 310 288 261
249 305 278 248
196 254 257 246
127 171 179 165
0 2 0 0
0 0 0 0
0 0 0 0
0 0 0 0
0 0 0 0
0 0 0 0
0 0 0 0
1 0 0 0
13 1 0 0
25 22 16 13
70 93 118 133
133 161 164 160
198 259 251 256
253 315 298 260
233 314 279 248
176 254 259 255
92 160 147 132
0 0 0 0
0 0 0 0
0 0 0 0
0 0 0 0
0 0 0 0
0 0 0 0
0 0 0 0
7 0 0 0
15 1 0 0
32 29 31 34
78 105 123 134
136 168 170 166
215 268 261 252
255 300 279 262
221 284 259 254
162 232 257 239
63 126 143 131
0 0 0 0
0 0 0 0
0 0 0 0
0 0 0 0
0 0 0 0
0 0 0 0
0 0 0 0
10 0 0 0
22 12 4 0
52 57 69 87
116 131 133 128
174 220 245 241
255 304 292 260
251 327 304 259
202 272 254 242
132 192 205 218
2 34 57 85
0 0 0 0
0 0 0 0
0 0 0 0
0 0 0 0
0 0 0 0
0 0 0 0
2 0 0 0
13 3 0 0
23 21 12 7
62 77 103 128
126 159 154 137
187 249 255 249
251 329 309 272
239 331 309 261
191 263 251 234
120 176 179 165
0 0 0 0
0 0 0 0
0 0 0 0
0 0 0 0
0 0 0 0
0 0 0 0
0 0 0 0
2 0 0 0
17 5 0 0
34 29 31 29
79 106 128 131
139 176 179 183
210 267 258 255
255 303 280 251
226 296 255 257
166 245 241 236
68 133 143 127
0 0 0 0
0 0 0 0
0 0 0 0
0 0 0 0
0 0 0 0
0 0 0 0
0 0 0 0
9 0 0 0
24 12 3 0
45 50 57 68
103 131 127 137
161 204 219 247
245 315 297 268
251 313 295 259
199 262 257 255
131 204 224 245
9 59 104 138
0 0 0 0
0 0 0 0
0 0 0 0
0 0 0 0
0 0 0 0
0 0 0 0
1 0 0 0
12 3 0 0
27 21 14 12
69 87 117 125
133 158 164 159
194 252 258 263
252 314 297 260
237 317 287 253
182 254 254 244
100 162 156 133
0 0 0 0
0 0 0 0
0 0 0 0
0 0 0 0
0 0 0 0
0 0 0 0
0 0 0 0
2 0 0 0
16 5 0 0
29 25 20 18
84 113 130 121
138 175 178 179
212 268 259 252
251 302 280 258
221 288 254 262
154 228 249 253
53 123 138 124
0 0 0 0
0 0 0 0
0 0 0 0
0 0 0 0
0 0 0 0
0 0 0 0
2 0 0 0
6 0 0 0
22 11 2 0
48 53 63 78
106 130 130 134
167 213 231 252
247 327 312 279
254 315 302 260
200 267 260 248
129 182 195 204
7 40 61 90
0 0 0 0
0 0 0 0
0 0 0 0
0 0 0 0
0 0 0 0
0 0 0 0
1 0 0 0
11 1 0 0
22 13 6 2
54 63 78 103
119 141 130 130
183 240 256 247
251 333 312 275
248 314 291 259
199 259 249 255
130 172 173 158
0 9 5 0
0 0 0 0
0 0 0 0
0 0 0 0
0 0 0 0
0 0 0 0
0 0 0 0
4 0 0 0
11 0 0 0
18 7 0 0
43 47 50 59
111 128 134 131
169 209 231 247
246 319 300 268
250 338 321 283
197 271 255 244
134 189 205 211
1 32 51 74
0 0 0 0
0 0 0 0
0 0 0 0
0 0 0 0
0 0 0 0
0 0 0 0
5 0 0 0
16 5 0 0
29 22 17 15
72 91 118 129
134 161 160 152
197 257 247 256
252 337 317 284
237 327 306 256
186 256 248 252
107 174 166 148
0 0 0 0
0 0 0 0
0 0 0 0
0 0 0 0
0 0 0 0
0 0 0 0
0 0 0 0
5 0 0 0
19 8 1 0
37 33 35 37
86 122 131 125
141 186 196 201
215 279 254 261
251 326 306 267
224 302 265 256
160 244 241 229
59 131 142 131
0 0 0 0
0 0 0 0
0 0 0 0
0 0 0 0
0 0 0 0
0 0 0 0
0 0 0 0
12 0 0 0
24 15 6 1
46 53 59 73
115 131 129 137
172 214 232 252
251 304 287 256
254 303 277 254
198 259 252 255
132 181 187 181
0 26 38 47
0 0 0 0
0 0 0 0
0 0 0 0
0 0 0 0
0 0 0 0
0 0 0 0
0 0 0 0
16 1 0 0
22 19 12 7
57 70 92 116
127 145 133 150
191 245 250 238
254 310 295 261
246 301 271 254
193 251 259 243
120 166 165 143
0 0 0 0
0 0 0 0
0 0 0 0
0 0 0 0
0 0 0 0
0 0 0 0
0 0 0 0
7 0 0 0
15 5 0 0
20 14 4 1
54 66 80 105
125 133 144 132
190 245 245 244
253 316 301 268
245 302 274 247
190 250 259 241
120 182 187 176
0 4 1 0
0 0 0 0
0 0 0 0
0 0 0 0
0 0 0 0
0 0 0 0
0 0 0 0
5 0 0 0
11 1 0 0
26 15 7 1
59 70 85 115
133 147 134 157
195 248 251 243
256 312 300 266
243 295 265 247
189 250 257 248
123 168 163 147
0 0 0 0
0 0 0 0
0 0 0 0
0 0 0 0
0 0 0 0
0 0 0 0
0 0 0 0
3 0 0 0
9 0 0 0
21 8 1 0
53 60 71 92
120 132 133 136
180 225 247 255
255 316 299 265
251 330 310 262
193 263 254 255
125 178 179 170
0 12 14 5
0 0 0 0
0 0 0 0
0 0 0 0
0 0 0 0
0 0 0 0
0 0 0 0
1 0 0 0
14 2 0 0
28 20 16 14
69 90 120 126
130 155 154 149
202 254 247 258
252 333 311 274
232 318 291 258
182 256 250 249
103 166 157 138
0 0 0 0
0 0 0 0
0 0 0 0
0 0 0 0
0 0 0 0
0 0 0 0
0 0 0 0
13 0 0 0
20 13 4 0
38 40 43 46
92 128 128 126
153 199 216 238
231 307 276 257
252 333 309 262
215 294 258 245
150 220 245 249
26 85 131 128
0 0 0 0
0 0 0 0
0 0 0 0
0 0 0 0
0 0 0 0
0 0 0 0
0 0 0 0
10 0 0 0
22 14 7 1
53 59 72 90
115 135 140 125
174 224 246 256
251 309 292 261
245 318 292 249
186 260 256 251
128 190 201 205
0 16 29 34
0 0 0 0
0 0 0 0
0 0 0 0
0 0 0 0
0 0 0 0
0 0 0 0
7 0 0 0
16 4 0 0
27 20 12 6
72 90 120 130
134 161 166 167
204 254 254 257
253 309 287 256
235 315 276 254
181 258 244 247
100 175 164 142
0 0 0 0
0 0 0 0
0 0 0 0
0 0 0 0
0 0 0 0
0 0 0 0
0 0 0 0
4 0 0 0
18 5 0 0
27 30 20 18
82 118 121 119
143 187 198 210
221 287 254 262
252 308 285 253
218 283 258 253
160 233 251 236
53 126 136 131
0 0 0 0
0 0 0 0
0 0 0 0
0 0 0 0
0 0 0 0
0 0 0 0
1 0 0 0
11 0 0 0
22 12 5 0
52 60 72 96
115 129 129 141
179 226 247 248
251 311 292 260
251 333 310 263
199 271 249 232
135 186 197 201
0 26 42 54
0 0 0 0
0 0 0 0
0 0 0 0
0 0 0 0
0 0 0 0
0 0 0 0
5 0 0 0
17 2 0 0
29 24 20 20
73 96 124 121
137 167 173 171
203 258 261 242
255 305 281 258
235 314 273 245
181 254 253 236
101 159 155 134
0 0 0 0
0 0 0 0
0 0 0 0
0 0 0 0
0 0 0 0
0 0 0 0
0 0 0 0
2 0 0 0
15 8 0 0
36 35 34 42
86 120 128 129
147 183 194 207
228 289 257 253
253 302 274 267
218 281 260 257
160 232 254 238
53 123 142 131
0 0 0 0
0 0 0 0
0 0 0 0
0 0 0 0
0 0 0 0
0 0 0 0
3 0 0 0
8 0 0 0
12 3 0 0
43 41 46 56
101 126 133 127
166 207 232 248
249 320 309 270
252 333 320 272
198 271 258 241
134 199 222 240
14 56 94 128
0 0 0 0
0 0 0 0
0 0 0 0
0 0 0 0
0 0 0 0
0 0 0 0
3 0 0 0
15 4 0 0
24 13 6 0
54 65 78 102
126 139 134 136
182 233 250 263
251 314 298 269
242 295 262 255
188 257 247 244
121 169 171 155
0 1 0 0
0 0 0 0
0 0 0 0
0 0 0 0
0 0 0 0
0 0 0 0
0 0 0 0
1 0 0 0
14 3 0 0
23 21 13 9
60 75 95 128
130 152 142 138
197 249 255 252
254 314 294 263
245 301 270 261
187 253 259 255
120 176 173 163
0 0 0 0
0 0 0 0
0 0 0 0
0 0 0 0
0 0 0 0
0 0 0 0
0 0 0 0
6 0 0 0
15 5 0 0
26 20 8 2
58 74 87 116
127 159 151 137
188 252 256 242
251 331 318 281
243 306 283 255
188 253 255 246
115 160 160 133
0 0 0 0
0 0 0 0
0 0 0 0
0 0 0 0
0 0 0 0
0 0 0 0
0 0 0 0
1 0 0 0
14 3 0 0
31 25 22 21
74 97 126 119
135 166 167 157
212 264 252 241
255 313 295 256
236 310 272 258
172 251 260 243
86 152 142 127
0 0 0 0
0 0 0 0
0 0 0 0
0 0 0 0
0 0 0 0
0 0 0 0
0 0 0 0
9 0 0 0
11 2 0 0
29 26 17 14
83 110 135 116
144 188 201 211
224 292 260 259
250 310 284 254
221 289 255 263
154 227 250 254
50 120 134 133
0 0 0 0
0 0 0 0
0 0 0 0
0 0 0 0
0 0 0 0
0 0 0 0
2 0 0 0
15 0 0 0
23 17 5 3
50 57 66 81
120 133 131 128
181 232 254 228
252 333 319 283
251 341 332 294
188 261 259 246
127 198 216 232
0 32 57 87
0 0 0 0
0 0 0 0
0 0 0 0
0 0 0 0
0 0 0 0
0 0 0 0
3 0 0 0
10 0 0 0
29 21 16 15
72 94 118 126
130 158 154 144
204 256 253 257
255 308 288 256
231 303 265 250
179 255 243 255
99 165 155 133
0 0 0 0
0 0 0 0
0 0 0 0
0 0 0 0
0 0 0 0
0 0 0 0
0 0 0 0
8 0 0 0
18 6 0 0
32 28 21 19
78 109 127 135
137 171 177 179
216 274 258 252
254 303 281 250
214 285 260 252
159 228 251 224
53 124 143 127
0 0 0 0
0 0 0 0
0 0 0 0
0 0 0 0
0 0 0 0
0 0 0 0
1 0 0 0
11 1 0 0
22 11 4 0
50 56 68 87
112 129 129 134
172 210 230 248
254 302 285 259
251 321 297 257
202 268 256 240
133 179 188 194
1 28 43 59
0 0 0 0
0 0 0 0
0 0 0 0
0 0 0 0
0 0 0 0
0 0 0 0
3 0 0 0
11 0 0 0
22 11 3 0
59 69 83 114
128 132 149 134
182 228 253 259
255 309 292 258
245 318 292 249
187 254 258 253
120 187 189 184
0 13 16 15
0 0 0 0
0 0 0 0
0 0 0 0
0 0 0 0
0 0 0 0
0 0 0 0
7 0 0 0
13 2 0 0
36 30 31 34
79 111 129 127
145 182 194 205
219 284 257 258
254 309 282 254
216 285 255 254
161 234 251 233
57 126 130 131
0 0 0 0
0 0 0 0
0 0 0 0
0 0 0 0
0 0 0 0
0 0 0 0
2 0 0 0
11 0 0 0
17 7 0 0
47 49 57 72
106 130 127 133
172 216 241 237
250 329 320 291
250 333 322 283
193 271 254 248
132 193 212 236
7 41 73 114
0 0 0 0
0 0 0 0
0 0 0 0
0 0 0 0
0 0 0 0
0 0 0 0
3 0 0 0
15 1 0 0
28 22 17 14
69 92 120 129
133 161 163 157
198 257 250 260
256 313 295 262
238 320 286 254
180 253 247 248
103 178 167 146
0 0 0 0
0 0 0 0
0 0 0 0
0 0 0 0
0 0 0 0
0 0 0 0
0 0 0 0
6 0 0 0
14 1 0 0
33 25 21 14
84 116 119 127
147 189 195 208
220 285 255 259
251 309 283 252
216 286 256 257
154 228 250 251
53 126 136 128
0 0 0 0
0 0 0 0
0 0 0 0
0 0 0 0
0 0 0 0
0 0 0 0
2 0 0 0
15 2 0 0
19 10 0 0
45 49 54 70
111 133 135 137
172 210 230 249
251 322 303 263
250 332 315 269
192 263 253 256
132 182 195 195
0 24 40 51
0 0 0 0
0 0 0 0
0 0 0 0
0 0 0 0
0 0 0 0
0 0 0 0
4 0 0 0
15 4 0 0
26 13 6 0
54 66 79 104
130 140 136 137
187 240 255 246
255 318 299 269
245 303 271 254
188 251 256 241
128 171 180 177
0 1 1 0
0 0 0 0
0 0 0 0
0 0 0 0
0 0 0 0
0 0 0 0
0 0 0 0
3 0 0 0
9 0 0 0
20 7 1 0
50 56 64 82
114 131 136 126
177 223 248 241
251 328 318 287
247 332 321 279
192 263 256 262
128 203 217 241
0 32 57 86
0 0 0 0
0 0 0 0
0 0 0 0
0 0 0 0
0 0 0 0
0 0 0 0
0 0 0 0
9 1 0 0
22 14 6 0
55 66 79 104
127 131 147 133
176 219 247 239
252 311 302 267
248 302 274 265
195 255 259 248
127 175 171 161
0 6 1 0
0 0 0 0
0 0 0 0
0 0 0 0
0 0 0 0
0 0 0 0
0 0 0 0
1 0 0 0
11 1 0 0
22 15 8 2
58 68 85 113
123 129 140 131
180 216 247 244
253 329 318 292
248 327 314 268
186 261 252 242
124 176 181 174
0 4 5 0
0 0 0 0
0 0 0 0
0 0 0 0
0 0 0 0
0 0 0 0
0 0 0 0
4 0 0 0
11 0 0 0
26 18 8 2
60 71 86 121
124 131 146 135
180 221 246 254
255 312 297 263
247 322 298 256
188 260 252 257
127 173 178 170
0 3 3 0
0 0 0 0
0 0 0 0
0 0 0 0
0 0 0 0
0 0 0 0
0 0 0 0
4 0 0 0
16 2 0 0
24 21 12 9
57 70 90 115
130 143 137 137
187 244 248 248
252 318 306 275
243 300 274 262
187 253 242 246
124 180 178 173
0 4 2 0
0 0 0 0
0 0 0 0
0 0 0 0
0 0 0 0
0 0 0 0
0 0 0 0
3 0 0 0
14 2 0 0
26 14 8 1
56 66 81 106
134 142 135 138
188 245 246 244
254 318 309 270
244 301 272 259
186 253 248 242
126 178 189 179
0 1 1 0
0 0 0 0
0 0 0 0
0 0 0 0
0 0 0 0
0 0 0 0
0 0 0 0
1 0 0 0
15 3 0 0
27 22 16 12
73 95 120 121
131 162 164 165
202 254 253 262
256 301 278 257
232 308 262 259
182 257 248 245
98 172 166 143
0 0 0 0
0 0 0 0
0 0 0 0
0 0 0 0
0 0 0 0
0 0 0 0
0 0 0 0
7 0 0 0
18 8 1 0
31 31 32 35
72 104 127 126
134 168 176 178
211 267 260 246
249 328 310 269
219 294 261 249
162 245 246 240
65 134 134 127
0 0 0 0
0 0 0 0
0 0 0 0
0 0 0 0
0 0 0 0
0 0 0 0
0 0 0 0
5 0 0 0
18 6 1 0
45 45 53 60
100 126 134 127
164 204 226 246
243 292 269 259
260 312 281 251
215 274 253 246
143 202 224 244
21 67 113 132
0 0 0 0
0 0 0 0
0 0 0 0
0 0 0 0
0 0 0 0
0 0 0 0
1 0 0 0
11 1 0 0
23 22 11 8
64 82 106 117
133 153 151 146
195 252 253 254
253 312 293 258
243 294 262 252
186 254 245 248
113 165 153 133
0 0 0 0
0 0 0 0
0 0 0 0
0 0 0 0
0 0 0 0
0 0 0 0
0 0 0 0
7 0 0 0
17 5 1 0
32 27 20 18
75 103 133 125
136 168 180 180
207 258 259 258
254 299 274 254
222 289 254 252
167 236 256 234
58 125 138 123
0 0 0 0
0 0 0 0
0 0 0 0
0 0 0 0
0 0 0 0
0 0 0 0
1 0 0 0
6 0 0 0
22 9 1 0
41 40 42 42
97 122 136 124
155 194 208 226
236 307 274 270
256 309 281 257
212 275 246 261
141 202 221 247
28 78 121 127
0 0 0 0
0 0 0 0
0 0 0 0
0 0 0 0
0 0 0 0
0 0 0 0
1 0 0 0
11 3 0 0
22 16 9 2
55 68 86 119
123 129 143 133
180 228 254 239
252 310 294 262
248 306 277 255
199 256 256 256
128 182 186 188
0 7 5 1
0 0 0 0
0 0 0 0
0 0 0 0
0 0 0 0
0 0 0 0
0 0 0 0
4 0 0 0
11 0 0 0
23 12 3 0
57 68 80 109
127 136 150 138
179 224 250 257
252 331 317 289
245 328 310 269
188 263 253 245
123 175 180 171
0 3 2 0
0 0 0 0
0 0 0 0
0 0 0 0
0 0 0 0
0 0 0 0
0 0 0 0
2 0 0 0
9 0 0 0
23 11 4 0
52 59 74 97
114 129 140 130
178 224 246 248
252 333 315 281
249 333 319 274
188 260 263 237
129 183 191 190
0 23 35 42
0 0 0 0
0 0 0 0
0 0 0 0
0 0 0 0
0 0 0 0
0 0 0 0
1 0 0 0
13 3 0 0
25 20 16 12
66 86 111 117
134 155 155 141
203 254 249 252
255 300 273 264
231 300 262 248
182 254 249 248
94 159 152 131
0 0 0 0
0 0 0 0
0 0 0 0
0 0 0 0
0 0 0 0
0 0 0 0
0 0 0 0
7 0 0 0
19 7 1 0
27 27 20 19
74 103 132 126
136 171 179 181
209 264 255 259
252 325 303 267
216 294 258 245
154 232 251 224
53 124 134 128
0 0 0 0
0 0 0 0
0 0 0 0
0 0 0 0
0 0 0 0
0 0 0 0
0 0 0 0
7 0 0 0
13 3 0 0
34 32 28 31
97 127 127 131
153 192 204 217
239 315 284 253
253 310 287 258
215 282 255 251
145 210 230 252
22 80 124 130
0 0 0 0
0 0 0 0
0 0 0 0
0 0 0 0
0 0 0 0
0 0 0 0
5 0 0 0
15 3 0 0
29 22 16 11
72 90 117 127
133 158 159 148
200 253 253 258
255 315 298 262
240 294 260 255
186 252 259 252
104 169 158 134
0 0 0 0
0 0 0 0
0 0 0 0
0 0 0 0
0 0 0 0
0 0 0 0
0 0 0 0
2 0 0 0
17 7 0 0
26 23 13 9
75 101 131 128
136 169 179 185
205 259 257 257
254 308 286 256
226 298 261 246
170 249 246 252
68 130 133 131
0 0 0 0
0 0 0 0
0 0 0 0
0 0 0 0
0 0 0 0
0 0 0 0
0 0 0 0
11 0 0 0
15 7 0 0
41 44 45 58
99 123 131 125
159 194 214 233
239 310 281 256
257 318 296 261
218 285 252 259
141 203 222 245
22 75 122 127
0 0 0 0
0 0 0 0
0 0 0 0
0 0 0 0
0 0 0 0
0 0 0 0
1 0 0 0
13 1 0 0
25 19 13 5
65 79 105 128
131 148 144 137
191 250 255 250
252 329 308 268
236 324 293 257
184 256 252 250
113 166 159 141
0 0 0 0
0 0 0 0
0 0 0 0
0 0 0 0
0 0 0 0
0 0 0 0
0 0 0 0
6 0 0 0
18 4 0 0
27 26 13 8
73 97 126 117
132 167 170 166
199 251 252 257
256 308 286 253
229 305 265 247
172 247 261 246
87 150 141 135
0 0 0 0
0 0 0 0
0 0 0 0
0 0 0 0
0 0 0 0
0 0 0 0
0 0 0 0
7 0 0 0
18 5 1 0
29 28 19 17
84 115 116 136
142 188 195 209
218 282 256 258
251 326 301 262
217 295 256 258
153 231 253 258
48 124 137 123
0 0 0 0
0 0 0 0
0 0 0 0
0 0 0 0
0 0 0 0
0 0 0 0
1 0 0 0
7 0 0 0
24 9 4 0
45 50 56 73
101 127 132 127
165 211 238 226
245 297 274 266
258 312 287 250
205 266 256 258
138 189 205 220
14 51 83 119
0 0 0 0
0 0 0 0
0 0 0 0
0 0 0 0
0 0 0 0
0 0 0 0
4 0 0 0
11 0 0 0
26 20 14 11
70 89 119 130
132 159 166 167
202 251 252 263
253 309 287 256
234 314 277 246
180 255 245 247
101 177 167 147
0 0 0 0
0 0 0 0
0 0 0 0
0 0 0 0
0 0 0 0
0 0 0 0
0 0 0 0
5 0 0 0
20 7 1 0
36 32 34 37
81 112 137 127
146 187 201 216
217 277 262 264
256 307 282 251
218 285 256 256
160 228 251 248
54 122 138 132
0 0 0 0
0 0 0 0
0 0 0 0
0 0 0 0
0 0 0 0
0 0 0 0
0 0 0 0
7 0 0 0
22 11 2 0
48 55 61 78
106 127 130 135
166 202 223 243
250 316 296 258
249 333 312 265
197 268 259 238
132 186 201 205
4 33 56 74
0 0 0 0
0 0 0 0
0 0 0 0
0 0 0 0
0 0 0 0
0 0 0 0
3 0 0 0
9 0 0 0
16 7 0 0
45 49 52 66
104 130 123 133
167 211 229 251
244 317 299 264
251 330 317 270
198 269 263 244
132 193 210 227
1 36 62 93
0 0 0 0
0 0 0 0
0 0 0 0
0 0 0 0
0 0 0 0
0 0 0 0
1 0 0 0
12 1 0 0
22 18 7 2
