## File generated by myo_cap software
## Available from github.com/ddantas/myo_cap
## Timestamp: 2018-05-23_20-57-32
##
## EMG capture settings##
# sampleRate: 2000.0
# channelsPerBoard: 4.0
# nBoards: 1.0
# bitsPerSample: 12.0
##
## Data
## t; ch0; ch1; ch2; ch3

254 314 292 262
245 300 265 255
186 258 248 248
100 167 158 135
0 0 0 0
0 0 0 0
0 0 0 0
0 0 0 0
0 0 0 0
0 0 0 0
0 0 0 0
1 0 0 0
14 4 0 0
31 27 25 20
80 108 132 121
147 184 198 214
220 283 254 265
256 309 278 255
222 295 257 248
166 244 242 231
56 0
14 0 6 81 107 131
126 160 158 144
187 253 250 255
251 332 318 286
246 311 284 260
194 257 256 260
120 172 169 159
0 0 0 0
0 0 0 0
0 0 0 0
0 0 0 0
0 0 0 0
0 0 0 0
0 0 0 0
2 0 0 0
15 3 0 0
24 17 8 3
60 74 93 116
130 148 141 136
202 250 252 251
254 312 289 252
245 321 291 248
187 254 258 249
114 165 160 144
0 0 0 0
0 0 0 0
0 0 0 0
0 0 0 0
0 0 0 0
0 0 0 0
0 0 0 0
1 0 0 0
14 2 0 0
32 26 21 21
74 95 123 122
127 172 172 172
198 262 253 257
251 313 294 262
231 309 271 259
178 256 248 241
87 150 135 134
0 0 0 0
0 0 0 0
0 0 0 0
0 0 0 0
0 0 0 0
0 0 0 0
0 0 0 0
8 0 0 0
14 1 0 0
35 27 26 20
86 118 121 120
149 194 203 217
222 290 263 258
253 327 312 278
219 303 266 259
155 236 251 251
50 126 136 131
0 0 0 0
0 0 0 0
0 0 0 0
0 0 0 0
0 0 0 0
0 0 0 0
1 0 0 0
8 0 0 0
15 3 0 0
43 45 52 62
103 132 127 127
171 213 242 236
249 328 317 287
254 322 316 275
205 271 257 242
135 203 226 247
18 60 108 126
0 0 0 0
0 0 0 0
0 0 0 0
0 0 0 0
0 0 0 0
0 0 0 0
1 0 0 0
15 2 0 0
20 16 6 1
55 69 84 112
130 143 134 137
198 249 255 252
256 312 291 261
249 323 298 257
187 257 257 260
119 173 173 165
0 1 0 0
0 0 0 0
0 0 0 0
0 0 0 0
0 0 0 0
0 0 0 0
0 0 0 0
1 0 0 0
13 1 0 0
29 23 20 21
78 101 124 125
137 171 179 181
212 263 257 249
253 310 290 253
237 313 273 245
179 256 248 246
84 147 134 137
0 0 0 0
0 0 0 0
0 0 0 0
0 0 0 0
0 0 0 0
0 0 0 0
0 0 0 0
5 0 0 0
13 1 0 0
30 28 22 22
89 118 133 127
149 188 201 213
229 298 261 259
255 310 282 256
216 289 249 254
160 234 250 231
48 121 136 133
0 0 0 0
0 0 0 0
0 0 0 0
0 0 0 0
0 0 0 0
0 0 0 0
1 0 0 0
8 0 0 0
17 3 0 0
48 50 58 72
110 135 127 128
168 216 232 245
254 305 289 257
252 314 290 260
203 262 258 256
131 190 205 216
8 42 69 104
0 0 0 0
0 0 0 0
0 0 0 0
0 0 0 0
0 0 0 0
0 0 0 0
0 0 0 0
8 0 0 0
19 7 0 0
50 55 64 83
108 131 130 129
177 220 245 238
251 309 299 265
254 333 315 266
200 275 255 247
132 185 188 185
0 24 36 40
0 0 0 0
0 0 0 0
0 0 0 0
0 0 0 0
0 0 0 0
0 0 0 0
0 0 0 0
8 0 0 0
23 11 3 0
50 56 65 85
112 133 127 139
172 218 240 236
252 331 319 288
250 336 324 284
196 274 263 253
125 198 214 221
0 30 51 71
0 0 0 0
0 0 0 0
0 0 0 0
0 0 0 0
0 0 0 0
0 0 0 0
4 0 0 0
14 3 0 0
30 24 20 20
75 101 131 131
129 179 185 195
201 262 259 257
255 317 303 267
236 316 288 253
177 253 243 244
85 145 137 134
0 0 0 0
0 0 0 0
0 0 0 0
0 0 0 0
0 0 0 0
0 0 0 0
0 0 0 0
7 0 0 0
19 5 0 0
37 37 36 45
86 115 130 122
148 184 197 208
229 294 264 258
257 317 300 259
228 298 261 246
162 240 260 239
48 125 131 122
0 0 0 0
0 0 0 0
0 0 0 0
0 0 0 0
0 0 0 0
0 0 0 0
1 0 0 0
5 0 0 0
17 8 0 0
44 49 53 65
109 134 133 134
169 219 240 231
256 305 292 258
255 315 296 254
212 276 258 245
135 193 213 222
3 41 70 105
0 0 0 0
0 0 0 0
0 0 0 0
0 0 0 0
0 0 0 0
0 0 0 0
1 0 0 0
8 0 0 0
19 5 0 0
48 54 59 74
106 127 130 133
169 205 228 249
252 324 306 270
251 313 298 259
204 272 251 241
133 185 197 197
2 34 50 67
0 0 0 0
0 0 0 0
0 0 0 0
0 0 0 0
0 0 0 0
0 0 0 0
1 0 0 0
3 0 0 0
18 8 0 0
43 43 44 50
107 131 132 135
171 222 250 242
252 328 322 286
256 321 315 274
204 276 260 248
131 195 216 231
7 43 74 113
0 0 0 0
0 0 0 0
0 0 0 0
0 0 0 0
0 0 0 0
0 0 0 0
3 0 0 0
14 0 0 0
23 11 5 0
56 63 78 98
125 132 137 134
181 231 251 258
258 318 310 281
254 334 319 275
193 259 260 259
127 177 185 187
0 9 16 15
0 0 0 0
0 0 0 0
0 0 0 0
0 0 0 0
0 0 0 0
0 0 0 0
0 0 0 0
8 0 0 0
20 8 2 0
50 58 69 95
120 130 131 129
186 237 252 237
255 336 325 300
250 339 335 303
189 266 259 243
127 186 197 198
0 17 31 33
0 0 0 0
0 0 0 0
0 0 0 0
0 0 0 0
0 0 0 0
0 0 0 0
4 0 0 0
11 0 0 0
26 15 7 0
62 79 100 125
131 167 163 162
191 254 247 258
253 320 302 268
244 300 265 254
193 254 256 252
114 152 137 133
0 0 0 0
0 0 0 0
0 0 0 0
0 0 0 0
0 0 0 0
0 0 0 0
0 0 0 0
5 0 0 0
17 2 0 0
33 29 29 30
77 102 125 127
136 168 173 171
213 271 250 249
255 303 276 260
228 296 255 262
174 248 255 239
73 130 135 127
0 0 0 0
0 0 0 0
0 0 0 0
0 0 0 0
0 0 0 0
0 0 0 0
0 0 0 0
7 0 0 0
15 3 0 0
42 40 44 51
97 129 130 136
155 203 218 247
239 290 262 265
255 305 274 268
225 290 256 252
155 226 242 248
39 106 136 135
0 0 0 0
0 0 0 0
0 0 0 0
0 0 0 0
0 0 0 0
0 0 0 0
1 0 0 0
13 1 0 0
26 15 11 2
58 72 85 113
132 145 138 136
194 247 262 245
254 310 295 254
245 317 292 256
183 257 254 255
114 167 159 140
0 0 0 0
0 0 0 0
0 0 0 0
0 0 0 0
0 0 0 0
0 0 0 0
0 0 0 0
1 0 0 0
8 0 0 0
22 9 1 0
51 61 69 90
120 130 130 127
183 235 249 233
257 314 298 264
252 332 316 272
198 271 253 257
131 183 194 195
0 22 37 51
0 0 0 0
0 0 0 0
0 0 0 0
0 0 0 0
0 0 0 0
0 0 0 0
3 0 0 0
15 0 0 0
24 14 7 0
64 75 97 125
128 140 133 133
189 244 243 238
255 317 303 263
250 321 301 251
186 262 252 251
123 183 186 183
0 6 7 0
0 0 0 0
0 0 0 0
0 0 0 0
0 0 0 0
0 0 0 0
0 0 0 0
0 0 0 0
11 0 0 0
27 23 19 16
73 96 121 118
134 167 165 163
205 257 257 258
258 316 298 265
243 299 263 253
189 257 249 249
103 172 165 146
0 0 0 0
0 0 0 0
0 0 0 0
0 0 0 0
0 0 0 0
0 0 0 0
0 0 0 0
6 0 0 0
13 2 0 0
32 25 22 17
84 116 120 131
145 188 196 214
226 297 267 251
257 317 300 261
226 297 258 243
162 238 259 233
52 124 141 124
0 0 0 0
0 0 0 0
0 0 0 0
0 0 0 0
0 0 0 0
0 0 0 0
0 0 0 0
5 0 0 0
21 11 0 0
45 48 55 63
104 129 122 130
176 223 248 243
255 308 295 254
253 309 285 257
202 261 252 246
132 183 193 199
1 26 40 51
0 0 0 0
0 0 0 0
0 0 0 0
0 0 0 0
0 0 0 0
0 0 0 0
2 0 0 0
10 0 0 0
22 13 9 2
56 68 86 118
121 126 136 153
184 226 247 260
252 309 288 258
249 329 303 261
194 262 258 262
129 175 179 178
0 3 1 0
0 0 0 0
0 0 0 0
0 0 0 0
0 0 0 0
0 0 0 0
0 0 0 0
1 0 0 0
11 1 0 0
21 14 8 2
58 68 86 119
128 133 151 141
186 234 258 246
258 320 314 288
255 309 290 253
194 256 254 255
127 181 186 184
0 6 7 1
0 0 0 0
0 0 0 0
0 0 0 0
0 0 0 0
0 0 0 0
0 0 0 0
1 0 0 0
6 0 0 0
21 11 2 0
50 59 66 87
114 130 139 129
180 227 250 249
257 318 303 268
253 317 298 253
198 258 251 247
137 180 186 184
0 24 35 40
0 0 0 0
0 0 0 0
0 0 0 0
0 0 0 0
0 0 0 0
0 0 0 0
4 0 0 0
15 1 0 0
25 22 18 15
74 96 125 118
134 166 168 160
206 258 250 248
255 309 288 251
248 301 264 255
190 249 250 238
99 154 137 128
0 0 0 0
0 0 0 0
0 0 0 0
0 0 0 0
0 0 0 0
0 0 0 0
0 0 0 0
6 0 0 0
11 1 0 0
26 23 14 7
68 89 112 123
135 163 159 157
212 260 247 249
254 309 285 256
235 314 272 263
181 260 243 250
91 158 143 135
0 0 0 0
0 0 0 0
0 0 0 0
0 0 0 0
0 0 0 0
0 0 0 0
0 0 0 0
7 0 0 0
17 4 0 0
31 27 24 21
86 119 126 129
139 182 188 196
227 293 258 253
255 317 298 263
227 298 260 247
164 240 261 244
61 128 145 130
0 0 0 0
0 0 0 0
0 0 0 0
0 0 0 0
0 0 0 0
0 0 0 0
0 0 0 0
6 0 0 0
15 3 0 0
41 37 38 41
102 131 136 129
167 211 235 251
245 315 298 264
253 312 293 259
212 279 255 252
138 195 208 223
13 56 92 127
0 0 0 0
0 0 0 0
0 0 0 0
0 0 0 0
0 0 0 0
0 0 0 0
2 0 0 0
15 2 0 0
20 11 1 0
59 72 86 120
125 133 145 132
186 235 261 247
253 313 300 270
251 329 306 264
190 260 253 255
124 177 185 173
0 6 5 1
0 0 0 0
0 0 0 0
0 0 0 0
0 0 0 0
0 0 0 0
0 0 0 0
1 0 0 0
15 1 0 0
26 20 15 11
70 91 118 128
133 152 149 136
198 257 245 255
255 313 291 257
247 302 267 254
183 253 241 236
109 177 177 159
0 0 0 0
0 0 0 0
0 0 0 0
0 0 0 0
0 0 0 0
0 0 0 0
0 0 0 0
6 0 0 0
17 4 0 0
32 27 24 22
84 114 131 124
143 178 190 193
219 280 249 252
256 313 288 254
229 301 266 247
170 245 248 238
66 132 132 132
0 0 0 0
0 0 0 0
0 0 0 0
0 0 0 0
0 0 0 0
0 0 0 0
0 0 0 0
2 0 0 0
19 7 1 0
38 38 36 40
98 131 137 133
157 198 217 238
240 314 287 259
254 315 292 256
215 284 258 252
141 205 221 247
22 77 120 131
0 0 0 0
0 0 0 0
0 0 0 0
0 0 0 0
0 0 0 0
0 0 0 0
2 0 0 0
4 0 0 0
19 10 2 0
51 59 69 92
112 133 128 141
176 221 248 242
255 315 305 275
252 330 312 263
200 272 253 237
128 197 210 212
0 31 55 79
0 0 0 0
0 0 0 0
0 0 0 0
0 0 0 0
0 0 0 0
0 0 0 0
1 0 0 0
13 1 0 0
30 22 20 18
79 97 132 127
132 168 173 176
214 261 253 250
259 319 302 264
243 294 265 250
185 250 252 250
100 164 149 137
0 0 0 0
0 0 0 0
0 0 0 0
0 0 0 0
0 0 0 0
0 0 0 0
0 0 0 0
6 0 0 0
18 4 3 0
34 31 26 27
87 122 129 130
148 195 212 237
223 295 265 251
255 312 287 254
221 295 261 250
160 240 262 242
52 123 145 128
0 0 0 0
0 0 0 0
0 0 0 0
0 0 0 0
0 0 0 0
0 0 0 0
1 0 0 0
6 0 0 0
22 10 4 0
51 58 70 91
113 134 133 127
181 224 244 251
255 313 298 269
256 310 287 250
207 269 255 254
132 187 201 203
4 33 57 79
0 0 0 0
0 0 0 0
0 0 0 0
0 0 0 0
0 0 0 0
0 0 0 0
3 0 0 0
11 0 0 0
28 16 11 2
60 73 92 118
128 146 134 150
194 247 251 241
260 321 307 277
251 330 314 261
190 261 260 225
123 171 168 153
0 0 0 0
0 0 0 0
0 0 0 0
0 0 0 0
0 0 0 0
0 0 0 0
0 0 0 0
4 0 0 0
10 0 0 0
27 20 16 12
68 86 115 121
127 152 149 135
203 253 251 248
257 308 282 257
239 317 274 257
183 253 242 250
93 166 145 125
0 0 0 0
0 0 0 0
0 0 0 0
0 0 0 0
0 0 0 0
0 0 0 0
0 0 0 0
2 0 0 0
15 3 0 0
35 32 29 31
80 108 129 126
141 183 188 198
219 283 253 258
255 309 282 258
232 307 269 253
172 253 257 249
61 128 141 126
0 0 0 0
0 0 0 0
0 0 0 0
0 0 0 0
0 0 0 0
0 0 0 0
0 0 0 0
6 0 0 0
18 7 0 0
38 38 35 40
99 131 130 136
159 206 227 246
246 298 276 257
257 332 311 267
208 287 256 261
147 215 245 242
22 78 127 126
0 0 0 0
0 0 0 0
0 0 0 0
0 0 0 0
0 0 0 0
0 0 0 0
1 0 0 0
6 0 0 0
22 11 4 0
53 61 70 95
114 130 129 142
180 228 249 252
255 317 302 269
254 316 299 257
202 263 263 241
137 182 191 195
0 25 41 51
0 0 0 0
0 0 0 0
0 0 0 0
0 0 0 0
0 0 0 0
0 0 0 0
4 0 0 0
10 0 0 0
25 17 15 12
67 83 109 114
132 157 156 145
198 257 250 259
255 318 301 264
246 302 271 254
184 258 249 241
100 168 161 134
0 0 0 0
0 0 0 0
0 0 0 0
0 0 0 0
0 0 0 0
0 0 0 0
0 0 0 0
6 0 0 0
13 1 0 0
26 24 15 13
79 106 128 131
139 182 196 213
220 286 255 263
253 313 291 257
220 294 254 257
164 237 256 240
51 125 131 133
0 0 0 0
0 0 0 0
0 0 0 0
0 0 0 0
0 0 0 0
0 0 0 0
1 0 0 0
7 0 0 0
22 10 2 0
47 53 61 81
109 134 134 137
167 209 221 247
251 324 308 273
253 313 294 256
201 266 261 256
135 190 204 212
7 41 66 97
0 0 0 0
0 0 0 0
0 0 0 0
0 0 0 0
0 0 0 0
0 0 0 0
2 0 0 0
8 0 0 0
14 3 0 0
46 49 51 65
106 129 126 130
168 213 232 245
251 306 292 262
253 306 284 257
201 259 249 246
137 185 199 203
7 38 65 91
0 0 0 0
0 0 0 0
0 0 0 0
0 0 0 0
0 0 0 0
0 0 0 0
1 0 0 0
6 0 0 0
22 9 5 0
43 44 50 56
109 132 129 129
175 223 249 242
251 331 321 284
254 322 316 275
207 276 262 254
132 196 217 232
3 38 67 104
0 0 0 0
0 0 0 0
0 0 0 0
0 0 0 0
0 0 0 0
0 0 0 0
1 0 0 0
12 0 0 0
23 17 12 9
66 79 104 128
133 150 148 135
195 252 246 241
253 311 294 254
242 297 261 259
193 251 253 237
114 154 144 133
0 0 0 0
0 0 0 0
0 0 0 0
0 0 0 0
0 0 0 0
0 0 0 0
0 0 0 0
3 0 0 0
19 4 0 0
30 23 21 15
77 101 124 120
136 167 175 171
217 272 254 252
255 313 291 256
233 309 268 252
169 248 252 228
70 130 133 130
0 0 0 0
0 0 0 0
0 0 0 0
0 0 0 0
0 0 0 0
0 0 0 0
0 0 0 0
7 0 0 0
16 1 0 0
39 37 42 50
94 130 130 133
153 202 217 242
239 317 292 263
254 316 294 255
219 293 261 257
159 232 250 231
39 111 134 137
0 0 0 0
0 0 0 0
0 0 0 0
0 0 0 0
0 0 0 0
0 0 0 0
0 0 0 0
7 0 0 0
22 11 4 0
56 65 77 102
123 132 137 136
177 228 252 257
254 317 305 275
254 310 288 255
196 256 257 242
126 195 207 212
0 22 39 54
0 0 0 0
0 0 0 0
0 0 0 0
0 0 0 0
0 0 0 0
0 0 0 0
6 0 0 0
17 3 0 0
31 29 29 30
71 99 126 127
133 172 178 181
215 267 259 254
255 322 307 268
223 305 266 258
174 250 260 248
82 145 132 137
0 0 0 0
0 0 0 0
0 0 0 0
0 0 0 0
0 0 0 0
0 0 0 0
0 0 0 0
11 0 0 0
18 11 1 0
38 40 41 46
102 126 138 130
165 209 232 249
247 319 304 269
253 313 294 256
206 271 262 247
138 194 213 238
10 50 85 127
0 0 0 0
0 0 0 0
0 0 0 0
0 0 0 0
0 0 0 0
0 0 0 0
4 0 0 0
9 0 0 0
23 11 4 0
55 63 78 104
126 132 128 135
179 228 252 254
257 319 308 279
251 310 290 255
191 258 259 252
130 183 196 199
0 13 23 20
0 0 0 0
0 0 0 0
0 0 0 0
0 0 0 0
0 0 0 0
0 0 0 0
1 0 0 0
14 1 0 0
32 26 22 20
74 97 122 118
134 172 177 178
210 262 253 247
253 311 291 262
238 318 284 255
181 257 246 252
90 157 138 129
0 0 0 0
0 0 0 0
0 0 0 0
0 0 0 0
0 0 0 0
0 0 0 0
0 0 0 0
1 0 0 0
14 3 0 0
37 34 35 38
85 122 132 126
142 187 198 203
228 297 266 247
257 316 298 256
230 309 265 254
168 246 251 234
55 127 132 133
0 0 0 0
0 0 0 0
0 0 0 0
0 0 0 0
0 0 0 0
0 0 0 0
0 0 0 0
10 0 0 0
26 14 5 0
51 59 66 84
119 131 131 128
184 232 248 253
253 312 294 261
253 315 291 260
200 263 257 261
129 195 199 209
0 35 53 79
0 0 0 0
0 0 0 0
0 0 0 0
0 0 0 0
0 0 0 0
0 0 0 0
4 0 0 0
10 0 0 0
24 19 13 7
61 74 95 127
131 149 141 133
200 252 251 250
253 313 291 257
246 322 295 253
184 255 255 249
115 168 163 147
0 0 0 0
0 0 0 0
0 0 0 0
0 0 0 0
0 0 0 0
0 0 0 0
0 0 0 0
4 0 0 0
11 1 0 0
26 19 10 1
68 88 116 122
132 152 151 137
199 256 246 251
255 318 300 261
245 301 268 253
182 255 255 246
99 164 146 131
0 0 0 0
0 0 0 0
0 0 0 0
0 0 0 0
0 0 0 0
0 0 0 0
0 0 0 0
1 0 0 0
15 2 0 0
34 31 31 35
81 114 138 125
142 184 195 208
220 283 253 255
257 315 298 259
230 302 265 255
168 247 258 239
70 136 133 136
0 0 0 0
0 0 0 0
0 0 0 0
0 0 0 0
0 0 0 0
0 0 0 0
0 0 0 0
8 0 0 0
12 2 0 0
36 33 30 31
94 129 126 127
157 200 218 246
237 312 284 259
259 323 303 267
224 301 261 253
156 233 251 226
38 107 137 129
0 0 0 0
0 0 0 0
0 0 0 0
0 0 0 0
0 0 0 0
0 0 0 0
1 0 0 0
11 0 0 0
19 9 1 0
51 52 58 75
120 134 129 130
181 228 249 245
252 312 293 258
250 339 317 274
193 264 265 238
127 195 210 222
0 30 51 74
0 0 0 0
0 0 0 0
0 0 0 0
0 0 0 0
0 0 0 0
0 0 0 0
4 0 0 0
9 0 0 0
19 10 1 0
59 67 83 110
128 134 148 133
186 240 257 247
256 318 302 265
245 325 299 252
187 261 251 237
118 187 189 181
0 8 10 1
0 0 0 0
0 0 0 0
0 0 0 0
0 0 0 0
0 0 0 0
0 0 0 0
1 0 0 0
13 3 0 0
27 23 21 19
73 99 129 129
131 162 160 155
207 259 252 252
252 309 284 253
241 294 264 255
183 249 252 256
93 152 132 134
0 0 0 0
0 0 0 0
0 0 0 0
0 0 0 0
0 0 0 0
0 0 0 0
0 0 0 0
6 0 0 0
12 1 0 0
32 27 20 15
79 108 126 129
145 182 192 201
220 279 259 258
254 313 290 257
226 303 262 245
168 248 244 249
56 125 133 127
0 0 0 0
0 0 0 0
0 0 0 0
0 0 0 0
0 0 0 0
0 0 0 0
0 0 0 0
3 0 0 0
20 8 2 0
45 48 56 69
102 131 131 135
166 211 241 236
249 323 311 278
253 320 309 266
207 280 257 252
137 198 218 238
8 49 84 126
0 0 0 0
0 0 0 0
0 0 0 0
0 0 0 0
0 0 0 0
0 0 0 0
1 0 0 0
5 0 0 0
19 11 2 0
49 58 66 90
114 129 141 127
170 213 234 251
251 308 294 266
253 304 282 263
207 263 256 257
133 182 194 193
2 30 46 64
0 0 0 0
0 0 0 0
0 0 0 0
0 0 0 0
0 0 0 0
0 0 0 0
2 0 0 0
7 0 0 0
22 11 2 0
55 63 76 101
120 133 137 131
188 235 253 241
255 335 329 307
250 319 308 264
204 265 255 255
128 193 201 208
0 23 39 52
0 0 0 0
0 0 0 0
0 0 0 0
0 0 0 0
0 0 0 0
0 0 0 0
4 0 0 0
9 0 0 0
24 13 5 1
64 76 97 127
130 147 141 137
194 248 254 248
257 319 305 274
245 328 307 260
187 260 250 233
116 169 167 147
0 1 1 0
0 0 0 0
0 0 0 0
0 0 0 0
0 0 0 0
0 0 0 0
0 0 0 0
5 0 0 0
15 1 0 0
29 24 21 20
77 97 128 124
131 160 164 153
206 257 255 250
258 317 299 265
240 318 285 256
186 255 248 255
93 161 142 136
0 0 0 0
0 0 0 0
0 0 0 0
0 0 0 0
0 0 0 0
0 0 0 0
0 0 0 0
5 0 0 0
17 5 0 0
37 33 34 34
85 118 125 131
139 180 188 194
221 285 256 257
255 316 292 257
230 305 269 253
170 246 262 242
57 124 130 123
0 0 0 0
0 0 0 0
0 0 0 0
0 0 0 0
0 0 0 0
0 0 0 0
1 0 0 0
7 0 0 0
22 9 1 0
43 42 44 46
106 127 133 129
169 212 239 227
249 323 310 270
253 320 310 261
211 279 256 255
136 194 205 216
15 62 95 128
0 0 0 0
0 0 0 0
0 0 0 0
0 0 0 0
0 0 0 0
0 0 0 0
0 0 0 0
8 0 0 0
19 5 0 0
51 55 65 81
110 137 134 132
176 220 246 244
253 304 288 263
256 313 291 258
204 267 255 240
136 188 204 210
5 39 61 87
0 0 0 0
0 0 0 0
0 0 0 0
0 0 0 0
0 0 0 0
0 0 0 0
0 0 0 0
15 0 0 0
28 17 12 5
61 74 92 119
128 146 137 154
186 243 234 261
257 323 310 280
249 330 316 266
191 261 259 254
120 167 165 150
0 1 0 0
0 0 0 0
0 0 0 0
0 0 0 0
0 0 0 0
0 0 0 0
0 0 0 0
0 0 0 0
8 1 0 0
22 14 4 1
57 66 82 111
118 147 131 132
181 240 254 245
253 315 301 264
247 324 303 263
190 258 259 233
124 174 178 168
0 7 7 0
0 0 0 0
0 0 0 0
0 0 0 0
0 0 0 0
0 0 0 0
0 0 0 0
1 0 0 0
7 0 0 0
23 11 3 0
52 61 71 96
117 130 136 134
180 228 252 258
255 316 304 272
253 315 295 261
201 266 254 257
130 197 202 205
0 32 49 67
0 0 0 0
0 0 0 0
0 0 0 0
0 0 0 0
0 0 0 0
0 0 0 0
4 0 0 0
16 2 0 0
27 20 16 9
61 77 98 125
127 160 156 147
188 249 251 252
253 311 287 259
250 309 279 252
197 259 249 248
119 168 167 143
0 0 0 0
0 0 0 0
0 0 0 0
0 0 0 0
0 0 0 0
0 0 0 0
0 0 0 0
3 0 0 0
11 0 0 0
29 24 21 19
70 91 115 128
133 159 154 143
210 258 260 260
258 317 300 264
242 293 266 250
184 251 255 252
91 152 131 136
0 0 0 0
0 0 0 0
0 0 0 0
0 0 0 0
0 0 0 0
0 0 0 0
0 0 0 0
7 0 0 0
12 1 0 0
32 24 21 12
83 113 136 125
148 186 201 213
221 285 257 263
255 315 289 255
228 302 266 248
168 249 245 253
56 126 127 127
0 0 0 0
0 0 0 0
0 0 0 0
0 0 0 0
0 0 0 0
0 0 0 0
0 0 0 0
11 0 0 0
21 11 2 0
49 58 69 94
117 130 136 130
177 219 247 237
254 333 325 296
251 320 311 273
197 260 259 254
133 182 194 195
0 25 42 57
0 0 0 0
0 0 0 0
0 0 0 0
0 0 0 0
0 0 0 0
0 0 0 0
2 0 0 0
13 1 0 0
18 8 0 0
54 62 73 94
115 131 134 135
184 234 251 233
253 313 300 268
252 313 292 259
198 257 255 257
125 196 203 209
0 31 51 73
0 0 0 0
0 0 0 0
0 0 0 0
0 0 0 0
0 0 0 0
0 0 0 0
1 0 0 0
13 1 0 0
27 25 19 20
74 98 128 124
132 168 169 167
202 258 259 250
256 312 298 261
236 314 277 254
179 257 242 248
95 163 147 130
0 0 0 0
0 0 0 0
0 0 0 0
0 0 0 0
0 0 0 0
0 0 0 0
0 0 0 0
6 0 0 0
17 5 0 0
35 36 34 37
84 118 125 130
137 182 188 197
218 279 259 257
255 305 276 261
228 295 261 259
171 249 241 247
63 134 131 132
0 0 0 0
0 0 0 0
0 0 0 0
0 0 0 0
0 0 0 0
0 0 0 0
1 0 0 0
2 0 0 0
20 7 2 0
38 39 38 40
99 131 136 129
157 200 217 237
245 293 269 265
257 315 289 255
220 288 252 258
148 217 239 231
29 87 128 131
0 0 0 0
0 0 0 0
0 0 0 0
0 0 0 0
0 0 0 0
0 0 0 0
1 0 0 0
7 0 0 0
20 13 4 0
52 62 78 104
122 148 134 134
177 231 247 247
255 312 296 262
249 327 302 257
194 259 254 247
126 171 171 162
0 12 12 3
0 0 0 0
0 0 0 0
0 0 0 0
0 0 0 0
0 0 0 0
0 0 0 0
0 0 0 0
14 1 0 0
27 22 18 15
73 97 124 121
133 167 166 163
208 258 252 253
253 310 287 255
239 318 276 251
186 256 251 254
99 159 143 130
0 0 0 0
0 0 0 0
0 0 0 0
0 0 0 0
0 0 0 0
0 0 0 0
0 0 0 0
7 0 0 0
16 7 0 0
35 33 35 38
84 118 126 130
140 179 187 196
218 279 258 255
255 307 278 254
228 295 262 251
170 246 254 234
64 129 137 127
0 0 0 0
0 0 0 0
0 0 0 0
0 0 0 0
0 0 0 0
0 0 0 0
1 0 0 0
5 0 0 0
21 7 1 0
43 48 51 64
102 125 131 131
162 202 216 241
247 296 269 266
256 311 284 256
215 279 256 244
141 195 218 231
18 64 106 121
0 0 0 0
0 0 0 0
0 0 0 0
0 0 0 0
0 0 0 0
0 0 0 0
4 0 0 0
11 0 0 0
18 12 1 0
62 72 90 121
132 142 134 142
191 245 254 242
259 317 305 273
246 318 296 250
183 258 258 248
120 177 178 172
0 1 0 0
0 0 0 0
0 0 0 0
0 0 0 0
0 0 0 0
0 0 0 0
0 0 0 0
1 0 0 0
7 0 0 0
16 7 0 0
50 54 65 86
114 129 131 134
182 228 250 251
255 317 302 269
253 315 296 256
201 263 258 260
134 178 186 191
0 21 34 39
0 0 0 0
0 0 0 0
0 0 0 0
0 0 0 0
0 0 0 0
0 0 0 0
3 0 0 0
11 0 0 0
26 20 16 9
62 75 95 127
131 150 143 136
198 251 255 253
254 333 324 295
246 313 296 261
190 254 261 232
115 163 152 132
0 0 0 0
0 0 0 0
0 0 0 0
0 0 0 0
0 0 0 0
0 0 0 0
0 0 0 0
1 0 0 0
12 1 0 0
31 25 20 21
71 94 119 134
134 161 161 152
205 261 244 259
258 316 299 262
236 313 277 245
177 253 261 252
86 150 133 129
0 0 0 0
0 0 0 0
0 0 0 0
0 0 0 0
0 0 0 0
0 0 0 0
0 0 0 0
4 0 0 0
20 7 0 0
33 31 28 27
85 121 125 129
141 185 194 204
219 285 258 254
254 307 283 248
228 301 260 245
168 250 242 243
53 125 122 136
0 0 0 0
0 0 0 0
0 0 0 0
0 0 0 0
0 0 0 0
0 0 0 0
1 0 0 0
7 0 0 0
22 10 2 0
42 48 50 61
112 129 136 132
169 217 235 259
251 306 295 267
251 312 292 255
201 262 253 247
132 188 197 204
4 38 61 86
0 0 0 0
0 0 0 0
0 0 0 0
0 0 0 0
0 0 0 0
0 0 0 0
1 0 0 0
3 0 0 0
19 8 1 0
49 51 60 76
107 126 130 131
169 204 225 242
251 319 302 266
255 320 302 260
205 272 254 243
134 187 202 204
7 36 59 80
0 0 0 0
0 0 0 0
0 0 0 0
0 0 0 0
0 0 0 0
0 0 0 0
1 0 0 0
10 0 0 0
22 14 5 1
53 61 70 90
119 141 139 136
170 220 246 247
251 313 302 274
250 328 311 265
196 264 255 258
123 188 197 201
0 24 39 54
0 0 0 0
0 0 0 0
0 0 0 0
0 0 0 0
0 0 0 0
0 0 0 0
4 0 0 0
13 1 0 0
28 27 21 20
73 101 130 132
132 171 176 179
213 261 258 259
257 310 288 262
238 313 276 251
175 255 255 247
83 144 138 130
0 0 0 0
0 0 0 0
0 0 0 0
0 0 0 0
0 0 0 0
0 0 0 0
0 0 0 0
9 0 0 0
18 11 1 0
38 38 40 45
97 127 127 131
153 196 206 221
240 289 261 263
253 305 269 265
216 282 253 250
157 224 250 246
34 96 130 125
0 0 0 0
0 0 0 0
0 0 0 0
0 0 0 0
0 0 0 0
0 0 0 0
0 0 0 0
9 0 0 0
22 11 4 0
51 58 71 95
116 131 136 131
172 218 244 233
253 311 301 265
257 309 288 261
204 265 261 243
132 182 195 201
1 23 39 50
0 0 0 0
0 0 0 0
0 0 0 0
0 0 0 0
0 0 0 0
0 0 0 0
3 0 0 0
9 0 0 0
15 7 0 0
49 52 61 80
117 132 129 138
181 223 248 247
256 309 295 266
253 309 285 256
198 261 253 250
136 192 205 212
1 37 61 86
0 0 0 0
0 0 0 0
0 0 0 0
0 0 0 0
0 0 0 0
0 0 0 0
1 0 0 0
7 0 0 0
22 11 2 0
52 62 73 98
119 131 134 126
177 215 240 232
256 312 301 266
253 305 284 254
195 255 256 256
125 192 201 202
0 32 51 72
0 0 0 0
0 0 0 0
0 0 0 0
0 0 0 0
0 0 0 0
0 0 0 0
2 0 0 0
15 1 0 0
26 13 7 0
58 69 83 110
127 142 134 141
191 244 259 255
257 324 309 276
244 321 299 253
183 255 253 255
121 175 177 164
0 1 0 0
0 0 0 0
0 0 0 0
0 0 0 0
0 0 0 0
0 0 0 0
0 0 0 0
4 0 0 0
11 0 0 0
23 13 3 0
62 75 94 121
130 142 135 151
195 245 254 242
255 312 298 268
249 327 301 260
190 261 249 237
117 185 184 171
0 6 3 0
0 0 0 0
0 0 0 0
0 0 0 0
0 0 0 0
0 0 0 0
0 0 0 0
0 0 0 0
7 0 0 0
24 13 7 0
53 61 71 94
119 142 133 136
181 232 252 236
256 314 296 264
251 327 308 266
199 268 248 258
130 185 192 188
0 19 32 34
0 0 0 0
0 0 0 0
0 0 0 0
0 0 0 0
0 0 0 0
0 0 0 0
4 0 0 0
16 1 0 0
31 27 27 27
80 106 128 127
136 168 171 165
213 267 257 245
256 309 288 254
234 311 269 253
171 251 256 233
76 133 146 136
0 0 0 0
0 0 0 0
0 0 0 0
0 0 0 0
0 0 0 0
0 0 0 0
0 0 0 0
12 0 0 0
18 3 0 0
44 46 52 65
99 129 129 129
155 195 203 217
243 290 264 253
255 309 283 259
218 280 259 252
154 217 247 246
30 86 126 124
0 0 0 0
0 0 0 0
0 0 0 0
0 0 0 0
0 0 0 0
0 0 0 0
1 0 0 0
8 0 0 0
19 6 0 0
47 53 60 78
108 127 130 136
178 215 247 239
252 306 294 266
254 314 297 258
206 269 247 258
129 182 187 187
4 34 51 69
0 0 0 0
0 0 0 0
0 0 0 0
0 0 0 0
0 0 0 0
0 0 0 0
0 0 0 0
9 0 0 0
24 7 3 0
53 55 66 87
112 133 132 131
177 220 245 239
253 310 299 265
252 313 297 259
201 260 256 251
135 185 199 207
5 36 59 87
0 0 0 0
0 0 0 0
0 0 0 0
0 0 0 0
0 0 0 0
0 0 0 0
0 0 0 0
8 0 0 0
18 3 0 0
50 53 60 79
112 131 134 135
171 210 231 249
251 303 287 264
255 305 280 257
203 262 254 256
132 196 211 228
2 36 61 90
0 0 0 0
0 0 0 0
0 0 0 0
0 0 0 0
0 0 0 0
0 0 0 0
0 0 0 0
6 0 0 0
15 3 0 0
41 41 40 46
109 131 127 137
169 213 232 256
255 306 290 261
254 315 297 257
207 271 248 258
130 183 190 192
3 37 57 78
0 0 0 0
0 0 0 0
0 0 0 0
0 0 0 0
0 0 0 0
0 0 0 0
1 0 0 0
9 0 0 0
21 11 2 0
47 53 59 74
110 135 129 132
174 217 238 248
253 312 298 263
253 304 279 248
198 257 260 259
134 184 197 206
0 30 43 63
0 0 0 0
0 0 0 0
0 0 0 0
0 0 0 0
0 0 0 0
0 0 0 0
3 0 0 0
14 1 0 0
25 14 5 1
61 75 94 120
133 143 132 149
190 240 260 243
257 322 316 287
252 305 284 258
191 254 252 254
121 182 181 169
0 7 12 1
0 0 0 0
0 0 0 0
0 0 0 0
0 0 0 0
0 0 0 0
0 0 0 0
2 0 0 0
14 0 0 0
34 28 25 21
73 97 127 122
133 164 165 160
205 262 249 258
258 316 296 261
241 294 267 253
179 255 248 244
88 149 134 131
0 0 0 0
0 0 0 0
0 0 0 0
0 0 0 0
0 0 0 0
0 0 0 0
0 0 0 0
6 0 0 0
13 0 0 0
35 32 27 31
88 120 128 125
150 194 208 226
225 291 264 260
252 310 285 256
230 304 261 260
169 248 243 245
54 125 132 130
0 0 0 0
0 0 0 0
0 0 0 0
0 0 0 0
0 0 0 0
0 0 0 0
0 0 0 0
7 0 0 0
22 10 2 0
49 55 61 81
113 131 134 137
172 210 231 249
251 304 284 253
257 305 281 256
204 263 262 263
134 189 207 220
8 42 68 103
0 0 0 0
0 0 0 0
0 0 0 0
0 0 0 0
0 0 0 0
0 0 0 0
4 0 0 0
13 1 0 0
25 20 12 7
61 76 97 127
127 139 128 143
195 247 253 244
255 312 296 266
249 307 279 247
196 256 262 248
122 171 163 148
0 0 0 0
0 0 0 0
0 0 0 0
0 0 0 0
0 0 0 0
0 0 0 0
0 0 0 0
4 0 0 0
11 0 0 0
31 23 20 16
75 101 127 125
134 167 177 180
206 257 258 249
256 313 296 260
236 316 281 249
175 251 261 250
74 137 130 135
0 0 0 0
0 0 0 0
0 0 0 0
0 0 0 0
0 0 0 0
0 0 0 0
0 0 0 0
9 0 0 0
18 7 0 0
34 32 31 32
89 121 138 127
150 190 207 225
228 295 264 258
259 320 301 262
227 304 262 257
161 244 234 249
40 117 132 127
0 0 0 0
0 0 0 0
0 0 0 0
0 0 0 0
0 0 0 0
0 0 0 0
0 0 0 0
11 0 0 0
13 7 0 0
50 53 61 80
111 123 132 128
172 210 236 250
253 304 292 260
255 304 283 258
198 258 251 255
128 186 197 203
0 25 39 48
0 0 0 0
0 0 0 0
0 0 0 0
0 0 0 0
0 0 0 0
0 0 0 0
2 0 0 0
8 0 0 0
20 7 0 0
50 55 64 87
114 129 134 134
180 223 248 245
257 308 296 262
256 309 285 260
202 266 259 261
134 176 187 187
1 30 44 56
0 0 0 0
0 0 0 0
0 0 0 0
0 0 0 0
0 0 0 0
0 0 0 0
5 0 0 0
13 1 0 0
25 21 13 7
63 80 104 128
133 148 145 137
187 246 254 247
255 309 290 259
246 307 272 246
194 256 256 255
119 164 154 135
0 0 0 0
0 0 0 0
0 0 0 0
0 0 0 0
0 0 0 0
0 0 0 0
0 0 0 0
3 0 0 0
17 2 0 0
31 23 17 7
68 88 117 125
130 162 166 163
201 253 249 257
256 314 294 262
243 299 269 261
182 253 252 254
98 163 149 137
0 0 0 0
0 0 0 0
0 0 0 0
0 0 0 0
0 0 0 0
0 0 0 0
0 0 0 0
7 0 0 0
11 1 0 0
32 23 21 14
83 109 131 131
143 183 189 203
215 274 260 261
252 303 286 254
229 294 263 258
170 249 250 248
61 128 143 130
0 0 0 0
0 0 0 0
0 0 0 0
0 0 0 0
0 0 0 0
0 0 0 0
0 0 0 0
9 0 0 0
22 10 2 0
44 43 47 55
108 133 128 133
171 218 242 238
252 333 325 298
253 344 340 311
211 292 266 253
129 218 242 222
8 64 117 131
0 0 0 0
0 0 0 0
0 0 0 0
0 0 0 0
0 0 0 0
0 0 0 0
1 0 0 0
13 1 0 0
28 22 17 16
74 96 124 119
135 166 170 164
205 256 257 258
259 316 298 265
247 299 267 254
188 258 249 248
101 165 158 136
0 0 0 0
0 0 0 0
0 0 0 0
0 0 0 0
0 0 0 0
0 0 0 0
0 0 0 0
5 0 0 0
19 4 0 0
32 30 28 23
89 119 129 133
148 195 206 227
230 300 269 266
253 312 284 254
228 301 261 247
166 248 248 241
53 129 135 125
0 0 0 0
0 0 0 0
0 0 0 0
0 0 0 0
0 0 0 0
0 0 0 0
0 0 0 0
6 0 0 0
14 2 0 0
39 36 40 41
107 132 132 133
170 213 243 238
253 332 321 297
255 324 318 281
207 282 252 255
125 205 215 233
3 55 91 130
0 0 0 0
0 0 0 0
0 0 0 0
0 0 0 0
0 0 0 0
0 0 0 0
1 0 0 0
8 0 0 0
15 5 0 0
46 52 57 74
110 131 137 138
174 217 248 247
255 311 301 269
253 309 288 256
198 263 253 257
131 195 209 218
3 39 66 101
0 0 0 0
0 0 0 0
0 0 0 0
0 0 0 0
0 0 0 0
0 0 0 0
3 0 0 0
12 0 0 0
26 21 15 11
72 95 120 127
134 163 165 159
206 253 260 251
253 309 284 262
245 298 266 253
189 257 247 251
104 173 163 142
0 0 0 0
0 0 0 0
0 0 0 0
0 0 0 0
0 0 0 0
0 0 0 0
0 0 0 0
7 0 0 0
18 5 0 0
38 38 41 45
86 117 123 126
148 195 210 232
230 301 272 253
256 331 314 274
219 305 266 252
160 244 240 226
54 131 130 127
0 0 0 0
0 0 0 0
0 0 0 0
0 0 0 0
0 0 0 0
0 0 0 0
0 0 0 0
3 0 0 0
17 9 0 0
43 46 51 65
99 131 139 130
160 203 224 245
247 300 279 256
256 331 311 275
208 285 255 253
130 213 232 249
10 69 116 126
0 0 0 0
0 0 0 0
0 0 0 0
0 0 0 0
0 0 0 0
0 0 0 0
2 0 0 0
8 0 0 0
21 12 3 0
47 57 65 84
114 130 130 128
184 234 251 231
257 323 311 278
252 314 297 262
199 262 254 243
124 195 204 206
0 23 37 48
0 0 0 0
0 0 0 0
0 0 0 0
0 0 0 0
0 0 0 0
0 0 0 0
1 0 0 0
12 3 0 0
31 24 21 20
72 92 119 134
134 160 158 149
207 260 259 256
257 316 298 262
240 297 268 254
184 252 249 242
92 147 135 133
0 0 0 0
0 0 0 0
0 0 0 0
0 0 0 0
0 0 0 0
0 0 0 0
0 0 0 0
7 0 0 0
18 1 0 0
37 31 28 24
84 114 119 129
147 192 201 217
229 297 268 250
256 317 300 261
228 300 264 249
170 245 254 235
57 128 139 131
0 0 0 0
0 0 0 0
0 0 0 0
0 0 0 0
0 0 0 0
0 0 0 0
0 0 0 0
4 0 0 0
20 10 2 0
46 56 63 81
106 128 132 128
167 209 229 251
250 321 309 268
257 314 297 259
203 266 256 259
136 193 209 227
1 36 55 88
0 0 0 0
0 0 0 0
0 0 0 0
0 0 0 0
0 0 0 0
0 0 0 0
0 0 0 0
6 0 0 0
21 8 3 0
43 43 47 53
109 130 129 132
174 221 247 246
250 308 298 265
253 308 287 263
207 270 260 240
131 185 194 194
5 32 52 64
0 0 0 0
0 0 0 0
0 0 0 0
0 0 0 0
0 0 0 0
0 0 0 0
3 0 0 0
8 0 0 0
16 4 0 0
47 51 58 74
106 126 129 131
168 203 224 248
252 318 302 265
256 318 301 260
210 275 259 246
132 204 230 247
1 42 78 115
0 0 0 0
0 0 0 0
0 0 0 0
0 0 0 0
0 0 0 0
0 0 0 0
0 0 0 0
9 0 0 0
15 7 0 0
47 54 64 80
109 133 130 132
177 221 248 242
252 310 301 266
249 330 309 266
197 268 258 243
135 185 201 211
0 31 50 74
0 0 0 0
0 0 0 0
0 0 0 0
0 0 0 0
0 0 0 0
0 0 0 0
2 0 0 0
8 0 0 0
18 7 0 0
49 55 66 87
106 131 130 132
168 210 225 247
250 305 286 253
255 308 284 254
206 263 257 264
133 176 178 180
0 20 31 32
0 0 0 0
0 0 0 0
0 0 0 0
0 0 0 0
0 0 0 0
0 0 0 0
3 0 0 0
8 0 0 0
21 6 0 0
50 57 64 82
113 130 132 134
179 222 249 242
255 316 304 271
253 313 296 262
205 268 258 243
129 178 185 190
1 25 38 51
0 0 0 0
0 0 0 0
0 0 0 0
0 0 0 0
0 0 0 0
0 0 0 0
3 0 0 0
10 0 0 0
22 18 7 3
56 74 87 119
129 139 135 133
182 232 251 229
253 311 296 259
251 328 303 260
193 264 258 259
120 185 186 184
0 12 15 15
0 0 0 0
0 0 0 0
0 0 0 0
0 0 0 0
0 0 0 0
0 0 0 0
7 0 0 0
19 3 0 0
36 31 31 34
83 113 131 120
142 180 191 194
220 282 251 256
255 314 290 259
229 304 261 254
170 246 250 227
56 124 128 136
0 0 0 0
0 0 0 0
0 0 0 0
0 0 0 0
0 0 0 0
0 0 0 0
0 0 0 0
3 0 0 0
18 7 0 0
38 36 34 36
102 128 135 131
166 208 230 251
247 323 305 269
255 316 296 261
205 271 254 250
134 215 239 224
10 69 117 124
0 0 0 0
0 0 0 0
0 0 0 0
0 0 0 0
0 0 0 0
0 0 0 0
2 0 0 0
8 0 0 0
20 8 0 0
48 52 57 71
120 134 136 128
178 224 242 248
255 317 302 266
251 313 290 250
194 255 259 257
130 202 214 230
0 31 52 76
0 0 0 0
0 0 0 0
0 0 0 0
0 0 0 0
0 0 0 0
0 0 0 0
6 0 0 0
16 3 0 0
33 27 24 21
77 102 133 130
138 169 179 186
213 262 255 263
255 311 290 256
237 316 279 253
183 254 247 248
83 142 130 128
0 0 0 0
0 0 0 0
0 0 0 0
0 0 0 0
0 0 0 0
0 0 0 0
0 0 0 0
5 0 0 0
22 7 0 0
39 38 41 50
90 126 135 128
150 192 208 225
229 301 269 267
253 312 285 251
220 291 257 256
162 240 258 237
48 118 132 133
0 0 0 0
0 0 0 0
0 0 0 0
0 0 0 0
0 0 0 0
0 0 0 0
1 0 0 0
11 1 0 0
21 12 3 0
51 57 66 84
115 133 128 138
179 225 247 243
252 311 296 269
252 312 291 261
197 260 251 258
131 182 193 198
0 17 27 32
0 0 0 0
0 0 0 0
0 0 0 0
0 0 0 0
0 0 0 0
0 0 0 0
4 0 0 0
16 1 0 0
29 24 19 19
76 97 128 125
132 168 171 172
209 262 250 244
254 312 293 259
237 317 280 255
185 257 255 244
99 160 151 137
0 0 0 0
0 0 0 0
0 0 0 0
0 0 0 0
0 0 0 0
0 0 0 0
0 0 0 0
2 0 0 0
15 2 0 0
33 25 21 19
79 105 125 129
145 182 196 211
224 286 253 261
255 317 294 260
233 307 268 252
168 248 244 231
61 134 131 132
0 0 0 0
0 0 0 0
0 0 0 0
0 0 0 0
0 0 0 0
0 0 0 0
0 0 0 0
8 0 0 0
15 3 0 0
42 42 44 57
94 124 132 133
160 202 225 244
245 297 275 253
260 318 291 254
219 293 257 254
148 213 236 249
30 82 123 124
0 0 0 0
0 0 0 0
0 0 0 0
0 0 0 0
0 0 0 0
0 0 0 0
2 0 0 0
7 0 0 0
21 11 4 0
53 64 77 105
117 142 132 128
181 234 252 240
253 310 293 259
254 307 281 255
195 258 250 252
125 175 173 166
0 9 9 1
0 0 0 0
0 0 0 0
0 0 0 0
0 0 0 0
0 0 0 0
0 0 0 0
1 0 0 0
9 0 0 0
21 11 2 0
45 48 52 62
114 128 134 135
175 218 241 239
252 308 296 269
254 312 295 257
205 267 257 241
129 179 187 188
0 23 34 40
0 0 0 0
0 0 0 0
0 0 0 0
0 0 0 0
0 0 0 0
0 0 0 0
0 0 0 0
7 0 0 0
21 11 3 0
55 64 77 102
117 140 131 133
181 233 253 238
255 319 308 279
254 307 288 252
196 260 260 255
130 186 195 198
0 21 34 42
0 0 0 0
0 0 0 0
0 0 0 0
0 0 0 0
0 0 0 0
0 0 0 0
1 0 0 0
16 4 0 0
33 30 27 29
81 108 133 121
135 171 173 174
211 268 261 245
253 302 280 256
226 295 260 254
166 244 243 237
74 135 147 128
0 0 0 0
0 0 0 0
0 0 0 0
0 0 0 0
0 0 0 0
0 0 0 0
0 0 0 0
9 0 0 0
22 11 2 0
47 51 61 74
101 131 132 132
162 204 218 247
248 300 276 260
256 313 285 258
220 285 248 249
146 208 224 246
22 72 118 129
0 0 0 0
0 0 0 0
0 0 0 0
0 0 0 0
0 0 0 0
0 0 0 0
0 0 0 0
11 0 0 0
25 12 4 0
57 68 80 104
127 134 146 133
191 245 248 245
255 336 328 301
247 316 301 262
198 259 248 255
122 190 187 175
0 12 16 4
0 0 0 0
0 0 0 0
0 0 0 0
0 0 0 0
0 0 0 0
0 0 0 0
7 0 0 0
19 5 0 0
38 35 35 39
83 111 136 127
147 187 203 218
219 280 256 255
257 316 296 261
234 310 272 255
175 250 261 245
71 133 135 136
0 0 0 0
0 0 0 0
0 0 0 0
0 0 0 0
0 0 0 0
0 0 0 0
0 0 0 0
5 0 0 0
20 10 1 0
47 51 61 76
107 132 134 128
171 220 246 238
249 327 313 280
254 324 314 274
204 272 258 248
131 212 236 252
5 59 104 135
0 0 0 0
0 0 0 0
0 0 0 0
0 0 0 0
0 0 0 0
0 0 0 0
2 0 0 0
16 2 0 0
24 21 15 11
72 96 122 115
130 161 163 156
201 252 261 259
255 314 296 267
245 300 267 255
181 252 254 243
102 167 163 143
0 0 0 0
0 0 0 0
0 0 0 0
0 0 0 0
0 0 0 0
0 0 0 0
0 0 0 0
7 0 0 0
21 8 2 0
40 41 42 46
86 118 133 121
142 177 186 189
226 289 255 260
252 309 284 256
224 294 262 259
162 236 253 229
50 121 135 134
0 0 0 0
0 0 0 0
0 0 0 0
0 0 0 0
0 0 0 0
0 0 0 0
0 0 0 0
11 0 0 0
16 6 0 0
47 53 59 74
106 127 130 130
168 206 225 246
251 329 313 282
252 337 326 286
204 284 258 248
130 191 198 200
4 40 64 87
0 0 0 0
0 0 0 0
0 0 0 0
0 0 0 0
0 0 0 0
0 0 0 0
0 0 0 0
8 0 0 0
16 5 0 0
44 51 55 73
109 129 140 134
171 214 244 241
252 326 314 282
256 315 302 258
202 266 263 244
132 192 206 223
7 41 66 99
0 0 0 0
0 0 0 0
0 0 0 0
0 0 0 0
0 0 0 0
0 0 0 0
1 0 0 0
12 1 0 0
22 15 7 3
57 69 86 119
124 128 137 130
183 229 255 238
257 316 307 273
254 306 287 255
192 254 260 257
129 177 182 179
0 10 13 9
0 0 0 0
0 0 0 0
0 0 0 0
0 0 0 0
0 0 0 0
0 0 0 0
1 0 0 0
14 3 0 0
25 19 9 2
57 73 88 116
129 145 138 132
196 252 259 244
253 312 296 257
246 304 272 262
189 249 256 240
121 171 170 163
0 0 0 0
0 0 0 0
0 0 0 0
0 0 0 0
0 0 0 0
0 0 0 0
0 0 0 0
1 0 0 0
14 2 0 0
25 19 7 5
63 80 101 130
133 147 142 133
200 251 252 249
254 311 287 259
240 322 285 259
186 258 251 249
110 183 178 165
0 0 0 0
0 0 0 0
0 0 0 0
0 0 0 0
0 0 0 0
0 0 0 0
0 0 0 0
6 0 0 0
10 1 0 0
33 27 24 26
81 108 128 130
142 178 187 196
219 278 258 254
255 314 288 257
230 309 269 251
170 247 251 248
69 131 128 131
0 0 0 0
0 0 0 0
0 0 0 0
0 0 0 0
0 0 0 0
0 0 0 0
0 0 0 0
6 0 0 0
22 8 1 0
38 39 35 39
99 130 131 132
153 199 215 232
243 293 266 267
258 316 290 262
223 293 260 248
149 220 243 237
27 84 127 132
0 0 0 0
0 0 0 0
0 0 0 0
0 0 0 0
0 0 0 0
0 0 0 0
1 0 0 0
8 0 0 0
21 11 2 0
47 50 57 68
111 126 132 135
175 214 243 234
252 310 298 263
255 306 283 255
198 262 251 259
135 189 203 216
1 30 50 75
0 0 0 0
0 0 0 0
0 0 0 0
0 0 0 0
0 0 0 0
0 0 0 0
2 0 0 0
12 1 0 0
24 20 14 9
64 81 106 129
133 150 148 137
195 251 252 252
256 310 286 259
248 302 269 260
190 253 258 248
113 158 152 136
0 0 0 0
0 0 0 0
0 0 0 0
0 0 0 0
0 0 0 0
0 0 0 0
0 0 0 0
8 0 0 0
14 2 0 0
30 25 18 13
76 100 126 123
141 173 183 190
218 273 258 254
254 311 294 261
233 308 270 254
170 244 248 251
71 131 131 132
0 0 0 0
0 0 0 0
0 0 0 0
0 0 0 0
0 0 0 0
0 0 0 0
0 0 0 0
11 0 0 0
22 11 3 0
49 55 66 87
104 129 134 127
163 203 224 247
246 316 297 265
251 317 298 262
200 263 257 261
134 189 203 218
7 40 66 97
0 0 0 0
0 0 0 0
0 0 0 0
0 0 0 0
0 0 0 0
0 0 0 0
0 0 0 0
10 0 0 0
24 15 9 2
59 69 87 116
120 149 130 137
181 244 235 254
255 322 310 281
251 329 311 266
195 258 257 255
128 171 173 161
0 7 2 0
0 0 0 0
0 0 0 0
0 0 0 0
0 0 0 0
0 0 0 0
0 0 0 0
1 0 0 0
10 0 0 0
13 4 0 0
45 42 47 55
110 125 131 130
173 210 237 255
252 305 292 261
253 303 277 254
198 257 252 260
136 189 200 209
1 30 52 76
0 0 0 0
0 0 0 0
0 0 0 0
0 0 0 0
0 0 0 0
0 0 0 0
2 0 0 0
9 0 0 0
17 7 0 0
48 55 61 78
109 133 133 133
170 213 240 232
253 326 317 281
256 314 302 256
198 259 257 254
136 181 189 197
1 24 40 56
0 0 0 0
0 0 0 0
0 0 0 0
0 0 0 0
0 0 0 0
0 0 0 0
2 0 0 0
9 0 0 0
19 8 1 0
43 49 54 66
108 129 130 134
169 212 232 249
251 326 314 280
253 312 297 259
203 267 262 247
137 182 198 206
0 23 39 46
0 0 0 0
0 0 0 0
0 0 0 0
0 0 0 0
0 0 0 0
0 0 0 0
2 0 0 0
8 0 0 0
19 7 0 0
50 57 66 87
114 129 132 134
178 227 244 254
253 315 299 265
256 309 288 261
197 261 253 249
137 190 207 211
1 32 58 79
0 0 0 0
0 0 0 0
0 0 0 0
0 0 0 0
0 0 0 0
0 0 0 0
1 0 0 0
9 0 0 0
18 6 0 0
51 54 64 83
114 127 129 130
175 215 235 255
253 305 289 253
253 310 289 254
199 261 254 260
136 191 205 217
0 28 48 67
0 0 0 0
0 0 0 0
0 0 0 0
0 0 0 0
0 0 0 0
0 0 0 0
4 0 0 0
15 3 0 0
26 20 14 11
70 91 122 130
135 155 161 151
199 251 253 255
258 322 306 268
247 306 276 253
192 252 261 241
102 159 151 136
0 0 0 0
0 0 0 0
0 0 0 0
0 0 0 0
0 0 0 0
0 0 0 0
0 0 0 0
6 0 0 0
11 1 0 0
31 25 17 9
76 105 127 127
130 186 193 204
213 282 252 262
254 314 292 254
230 308 269 253
176 253 254 246
75 130 129 135
0 0 0 0
0 0 0 0
0 0 0 0
0 0 0 0
0 0 0 0
0 0 0 0
0 0 0 0
7 0 0 0
11 1 0 0
34 30 27 27
91 125 131 133
154 195 213 238
232 307 274 267
253 313 287 249
225 295 254 250
156 232 252 251
33 100 128 121
0 0 0 0
0 0 0 0
0 0 0 0
0 0 0 0
0 0 0 0
0 0 0 0
3 0 0 0
12 2 0 0
21 9 1 0
55 62 74 98
121 132 141 133
179 221 248 242
255 316 309 280
255 309 288 258
198 262 250 237
125 198 205 206
0 31 51 69
0 0 0 0
0 0 0 0
0 0 0 0
0 0 0 0
0 0 0 0
0 0 0 0
3 0 0 0
10 0 0 0
27 21 18 15
73 94 123 118
133 159 158 146
206 257 253 255
253 308 284 257
242 294 261 254
183 249 250 250
91 152 132 134
0 0 0 0
0 0 0 0
0 0 0 0
0 0 0 0
0 0 0 0
0 0 0 0
0 0 0 0
5 0 0 0
11 0 0 0
35 32 29 29
89 118 126 131
148 190 207 221
228 296 260 264
260 322 299 262
233 314 273 249
168 246 250 248
64 131 136 130
0 0 0 0
0 0 0 0
0 0 0 0
0 0 0 0
0 0 0 0
0 0 0 0
0 0 0 0
6 0 0 0
22 10 2 0
49 54 61 79
109 133 137 139
171 217 241 242
254 305 291 261
253 309 288 257
207 271 246 251
131 204 221 233
2 49 86 127
0 0 0 0
0 0 0 0
0 0 0 0
0 0 0 0
0 0 0 0
0 0 0 0
1 0 0 0
8 0 0 0
21 12 2 0
52 58 69 82
120 131 132 131
184 234 251 237
253 313 294 264
254 311 289 254
201 262 255 252
126 188 194 193
0 26 42 53
0 0 0 0
0 0 0 0
0 0 0 0
0 0 0 0
0 0 0 0
0 0 0 0
6 0 0 0
12 0 0 0
29 24 19 17
75 100 129 129
129 179 188 190
200 262 257 250
252 314 300 268
231 309 275 260
179 258 241 252
81 140 135 127
0 0 0 0
0 0 0 0
0 0 0 0
0 0 0 0
0 0 0 0
0 0 0 0
0 0 0 0
7 0 0 0
11 1 0 0
32 28 25 22
86 119 131 131
143 185 199 207
228 290 260 251
256 316 299 260
229 303 261 261
162 240 252 238
51 127 134 130
0 0 0 0
0 0 0 0
0 0 0 0
0 0 0 0
0 0 0 0
0 0 0 0
0 0 0 0
7 0 0 0
14 3 0 0
46 46 52 65
104 129 126 131
168 209 232 252
251 331 317 287
255 323 313 276
201 271 250 258
131 197 213 226
12 50 81 118
0 0 0 0
0 0 0 0
0 0 0 0
0 0 0 0
0 0 0 0
0 0 0 0
1 0 0 0
13 2 0 0
27 23 21 20
66 88 116 121
132 159 165 160
205 252 258 250
256 313 293 256
243 297 266 253
184 252 248 241
95 155 148 131
0 0 0 0
0 0 0 0
0 0 0 0
0 0 0 0
0 0 0 0
0 0 0 0
0 0 0 0
5 0 0 0
17 5 0 0
38 36 35 38
86 119 127 133
141 183 191 202
219 285 259 261
253 309 284 249
223 296 262 257
170 247 241 243
62 134 128 132
0 0 0 0
0 0 0 0
0 0 0 0
0 0 0 0
0 0 0 0
0 0 0 0
0 0 0 0
12 0 0 0
21 11 4 0
50 58 70 94
113 130 130 133
172 212 232 257
253 300 284 256
255 303 274 262
203 258 253 261
134 192 205 222
4 38 61 94
0 0 0 0
0 0 0 0
0 0 0 0
0 0 0 0
0 0 0 0
0 0 0 0
0 0 0 0
11 2 0 0
15 8 0 0
51 59 65 91
114 134 127 139
182 230 253 255
256 318 303 270
252 314 294 257
200 263 257 254
126 190 198 201
0 27 45 59
0 0 0 0
0 0 0 0
0 0 0 0
0 0 0 0
0 0 0 0
0 0 0 0
1 0 0 0
8 0 0 0
19 7 0 0
51 58 69 88
119 134 131 130
183 233 256 236
252 312 297 263
252 312 291 260
200 261 253 254
129 195 203 211
0 30 50 72
0 0 0 0
0 0 0 0
0 0 0 0
0 0 0 0
0 0 0 0
0 0 0 0
2 0 0 0
7 0 0 0
25 17 8 2
59 72 87 119
124 133 147 133
186 233 254 239
257 314 301 268
247 325 303 258
188 259 253 259
124 177 186 188
0 8 13 11
0 0 0 0
0 0 0 0
0 0 0 0
0 0 0 0
0 0 0 0
0 0 0 0
4 0 0 0
11 0 0 0
27 15 7 0
62 73 89 114
127 159 148 131
191 252 245 246
254 311 295 257
244 298 262 255
185 255 244 241
119 174 176 165
0 0 0 0
0 0 0 0
0 0 0 0
0 0 0 0
0 0 0 0
0 0 0 0
0 0 0 0
1 0 0 0
15 1 0 0
26 22 13 7
73 93 118 129
136 163 163 157
207 258 246 255
259 318 296 261
242 293 262 252
187 254 243 254
100 167 154 134
0 0 0 0
0 0 0 0
0 0 0 0
0 0 0 0
0 0 0 0
0 0 0 0
0 0 0 0
7 0 0 0
17 6 0 0
33 29 25 26
89 123 131 130
142 187 195 213
227 297 267 251
257 317 300 260
224 297 257 256
166 244 248 240
48 125 139 127
0 0 0 0
0 0 0 0
0 0 0 0
0 0 0 0
0 0 0 0
0 0 0 0
1 0 0 0
5 0 0 0
16 2 0 0
42 40 44 43
107 131 134 130
168 216 245 240
249 324 315 281
253 318 305 264
203 269 259 247
134 197 217 241
15 54 92 132
0 0 0 0
0 0 0 0
0 0 0 0
0 0 0 0
0 0 0 0
0 0 0 0
3 0 0 0
8 0 0 0
15 7 0 0
47 55 65 83
113 129 132 133
179 224 250 249
255 316 303 276
252 313 294 260
202 265 262 239
135 180 189 191
0 22 34 44
0 0 0 0
0 0 0 0
0 0 0 0
0 0 0 0
0 0 0 0
0 0 0 0
0 0 0 0
10 0 0 0
26 21 16 15
73 94 119 134
135 164 165 158
202 256 251 261
256 315 295 267
243 298 261 252
185 254 243 239
103 168 159 137
0 0 0 0
0 0 0 0
0 0 0 0
0 0 0 0
0 0 0 0
0 0 0 0
0 0 0 0
7 0 0 0
16 6 0 0
40 37 37 39
89 122 131 131
144 180 188 197
222 284 256 253
257 313 291 258
230 303 265 255
169 248 245 252
53 127 128 128
0 0 0 0
0 0 0 0
0 0 0 0
0 0 0 0
0 0 0 0
0 0 0 0
0 0 0 0
3 0 0 0
20 7 2 0
41 39 40 46
103 135 133 127
169 215 246 238
250 309 293 261
257 331 318 277
205 284 255 255
132 205 223 248
8 50 84 131
0 0 0 0
0 0 0 0
0 0 0 0
0 0 0 0
0 0 0 0
0 0 0 0
1 0 0 0
9 0 0 0
24 11 4 0
54 64 75 104
116 138 140 134
172 222 242 253
253 306 287 260
249 324 298 258
194 259 260 248
129 180 187 188
0 12 14 8
0 0 0 0
0 0 0 0
0 0 0 0
0 0 0 0
0 0 0 0
0 0 0 0
1 0 0 0
8 0 0 0
18 7 0 0
48 56 66 84
113 130 133 134
180 227 247 246
256 312 290 263
252 312 288 252
204 261 255 255
132 171 175 169
0 18 29 29
0 0 0 0
0 0 0 0
0 0 0 0
0 0 0 0
0 0 0 0
0 0 0 0
4 0 0 0
9 0 0 0
25 15 11 4
56 69 89 121
132 143 135 142
193 250 244 251
255 318 296 265
247 323 296 258
186 259 261 258
123 191 198 201
0 7 9 7
0 0 0 0
0 0 0 0
0 0 0 0
0 0 0 0
0 0 0 0
0 0 0 0
1 0 0 0
13 1 0 0
27 22 16 15
73 93 120 121
134 162 166 165
207 253 259 252
258 314 296 263
242 293 265 250
181 252 254 246
105 168 167 149
0 0 0 0
0 0 0 0
0 0 0 0
0 0 0 0
0 0 0 0
0 0 0 0
0 0 0 0
2 0 0 0
15 4 0 0
32 27 24 19
83 117 120 133
147 190 201 213
228 296 260 258
258 319 292 262
227 299 259 245
169 249 242 244
59 131 134 136
0 0 0 0
0 0 0 0
0 0 0 0
0 0 0 0
0 0 0 0
0 0 0 0
1 0 0 0
8 0 0 0
21 8 2 0
47 50 57 72
107 132 129 135
168 217 239 229
252 331 319 285
255 325 318 279
212 283 254 255
134 195 210 226
7 50 84 125
0 0 0 0
0 0 0 0
0 0 0 0
0 0 0 0
0 0 0 0
0 0 0 0
1 0 0 0
11 2 0 0
18 5 1 0
50 57 64 84
114 126 133 133
180 223 250 248
256 315 308 279
254 313 299 256
202 262 253 235
137 192 208 215
1 32 58 80
0 0 0 0
0 0 0 0
0 0 0 0
0 0 0 0
0 0 0 0
0 0 0 0
1 0 0 0
12 0 0 0
25 18 15 14
68 84 111 115
134 152 151 134
201 253 259 250
256 312 300 265
245 297 267 251
187 256 248 245
105 172 169 153
0 0 0 0
0 0 0 0
0 0 0 0
0 0 0 0
0 0 0 0
0 0 0 0
0 0 0 0
6 0 0 0
14 2 0 0
33 33 31 35
78 112 135 125
143 184 199 210
222 291 258 253
255 315 298 261
222 295 255 253
161 236 253 232
54 130 136 127
0 0 0 0
0 0 0 0
0 0 0 0
0 0 0 0
0 0 0 0
0 0 0 0
1 0 0 0
3 0 0 0
18 8 0 0
39 41 40 44
101 131 127 128
165 211 231 247
247 306 283 255
253 311 283 258
213 279 254 241
137 196 214 226
6 43 77 114
0 0 0 0
0 0 0 0
0 0 0 0
0 0 0 0
0 0 0 0
0 0 0 0
1 0 0 0
14 1 0 0
19 7 0 0
51 58 68 87
117 132 128 136
179 221 247 241
256 316 310 275
255 316 301 259
200 263 261 241
133 182 188 193
0 22 37 50
0 0 0 0
0 0 0 0
0 0 0 0
0 0 0 0
0 0 0 0
0 0 0 0
3 0 0 0
10 0 0 0
26 17 9 5
63 74 96 124
132 143 134 149
192 250 248 245
257 320 309 268
250 331 313 268
192 261 258 257
119 178 178 159
0 6 5 0
0 0 0 0
0 0 0 0
0 0 0 0
0 0 0 0
0 0 0 0
0 0 0 0
3 0 0 0
11 0 0 0
28 20 16 9
60 77 97 123
126 160 157 147
186 249 252 254
255 317 301 265
246 312 283 259
191 255 254 242
121 173 174 160
0 0 0 0
0 0 0 0
0 0 0 0
0 0 0 0
0 0 0 0
0 0 0 0
0 0 0 0
3 0 0 0
16 2 0 0
29 20 13 5
74 93 118 127
132 163 160 154
204 258 256 254
255 316 294 265
246 301 268 260
185 258 250 244
106 174 174 150
0 0 0 0
0 0 0 0
0 0 0 0
0 0 0 0
0 0 0 0
0 0 0 0
0 0 0 0
1 0 0 0
16 2 0 0
35 33 30 34
86 119 129 129
141 186 194 207
221 285 260 259
256 314 292 255
230 303 267 249
167 245 254 238
58 129 141 133
0 0 0 0
0 0 0 0
0 0 0 0
0 0 0 0
0 0 0 0
0 0 0 0
0 0 0 0
12 0 0 0
21 12 4 0
53 59 71 96
116 134 130 131
175 221 248 241
254 315 304 273
254 315 300 258
203 267 257 240
132 174 184 179
0 21 35 40
0 0 0 0
0 0 0 0
0 0 0 0
0 0 0 0
0 0 0 0
0 0 0 0
1 0 0 0
12 0 0 0
25 21 15 9
62 75 95 127
128 148 137 133
195 249 259 246
254 332 320 291
243 306 284 259
184 256 261 250
122 171 177 161
0 0 0 0
0 0 0 0
0 0 0 0
0 0 0 0
0 0 0 0
0 0 0 0
0 0 0 0
4 0 0 0
14 2 0 0
32 26 23 22
71 95 123 117
133 160 160 149
206 258 257 255
254 328 311 271
231 317 288 259
171 252 256 248
84 146 132 130
0 0 0 0
0 0 0 0
0 0 0 0
0 0 0 0
0 0 0 0
0 0 0 0
0 0 0 0
4 0 0 0
13 0 0 0
33 32 29 30
81 112 135 124
145 188 203 218
223 292 260 257
258 315 297 257
229 303 264 257
169 243 258 232
62 130 145 127
0 0 0 0
0 0 0 0
0 0 0 0
0 0 0 0
0 0 0 0
0 0 0 0
0 0 0 0
12 0 0 0
21 14 6 0
52 62 75 98
112 129 129 144
177 227 246 248
253 314 300 266
253 308 285 259
200 263 253 260
133 171 177 172
0 20 32 36
0 0 0 0
0 0 0 0
0 0 0 0
0 0 0 0
0 0 0 0
0 0 0 0
2 0 0 0
8 0 0 0
23 14 7 0
58 68 86 118
120 149 128 147
180 241 255 248
252 314 302 266
250 313 286 254
207 263 253 247
127 191 194 193
0 13 16 14
0 0 0 0
0 0 0 0
0 0 0 0
0 0 0 0
0 0 0 0
0 0 0 0
1 0 0 0
13 1 0 0
32 30 27 28
74 100 130 123
136 167 177 175
217 272 254 254
255 303 276 261
224 295 258 260
167 249 248 248
67 131 137 131
0 0 0 0
0 0 0 0
0 0 0 0
0 0 0 0
0 0 0 0
0 0 0 0
0 0 0 0
9 0 0 0
14 1 0 0
36 34 31 35
92 125 121 125
153 189 203 214
238 313 284 252
258 323 301 261
221 298 263 249
152 221 246 251
36 100 135 128
0 0 0 0
0 0 0 0
0 0 0 0
0 0 0 0
0 0 0 0
0 0 0 0
1 0 0 0
7 0 0 0
24 13 6 0
56 67 81 111
127 131 150 135
176 221 242 250
254 315 298 261
256 307 284 258
196 257 251 262
125 173 172 164
0 6 3 0
0 0 0 0
0 0 0 0
0 0 0 0
0 0 0 0
0 0 0 0
0 0 0 0
0 0 0 0
9 0 0 0
21 10 4 0
47 53 58 77
116 135 133 131
177 219 245 234
255 315 304 270
254 316 298 256
203 267 256 242
133 184 192 199
0 23 35 45
0 0 0 0
0 0 0 0
0 0 0 0
0 0 0 0
0 0 0 0
0 0 0 0
3 0 0 0
10 0 0 0
25 20 14 8
65 82 106 113
131 144 139 130
192 250 258 243
255 315 304 265
246 306 279 249
194 256 255 242
120 166 165 144
0 0 0 0
0 0 0 0
0 0 0 0
0 0 0 0
0 0 0 0
0 0 0 0
0 0 0 0
6 0 0 0
13 1 0 0
31 23 17 9
74 99 125 118
132 167 174 169
212 263 255 250
255 331 318 281
232 321 298 254
176 258 250 255
87 152 138 125
0 0 0 0
0 0 0 0
0 0 0 0
0 0 0 0
0 0 0 0
0 0 0 0
0 0 0 0
2 0 0 0
15 3 0 0
29 25 17 13
78 105 121 127
144 183 190 202
225 289 261 250
256 315 296 259
233 306 265 259
168 247 242 228
62 131 130 127
0 0 0 0
0 0 0 0
0 0 0 0
0 0 0 0
0 0 0 0
0 0 0 0
1 0 0 0
6 0 0 0
21 10 2 0
44 45 49 54
104 130 124 129
169 216 246 240
250 332 330 310
255 323 320 288
203 270 261 251
132 196 208 220
7 49 79 119
0 0 0 0
0 0 0 0
0 0 0 0
0 0 0 0
0 0 0 0
0 0 0 0
1 0 0 0
8 0 0 0
22 5 1 0
45 48 50 61
115 130 134 136
174 215 234 252
253 312 295 267
253 314 298 256
203 267 256 238
130 174 178 173
0 17 27 21
0 0 0 0
0 0 0 0
0 0 0 0
0 0 0 0
0 0 0 0
0 0 0 0
1 0 0 0
8 0 0 0
21 12 2 0
52 58 64 79
123 131 131 136
182 230 251 250
256 241
63 128 137 136
0 0 0 0
0 0 0 0
0 0 0 0
0 0 0 0
0 0 0 0
0 0 0 0
0 0 0 0
9 0 0 0
15 4 0 0
48 46 50 65
95 129 132 133
154 189 202 215
239 310 277 258
254 316 286 258
215 283 259 250
146 211 240 224
25 82 132 126
0 0 0 0
0 0 0 0
0 0 0 0
0 0 0 0
0 0 0 0
0 0 0 0
1 0 0 0
7 0 0 0
25 11 7 0
57 64 74 102
120 149 136 136
177 233 257 233
256 320 310 275
249 335 320 276
195 267 261 242
128 173 182 172
0 8 7 1
0 0 0 0
0 0 0 0
0 0 0 0
0 0 0 0
0 0 0 0
0 0 0 0
0 0 0 0
6 0 0 0
21 11 2 0
50 59 67 90
111 129 132 135
177 220 247 245
257 306 294 259
252 306 285 257
198 261 253 259
138 190 207 217
2 36 61 87
0 0 0 0
0 0 0 0
0 0 0 0
0 0 0 0
0 0 0 0
0 0 0 0
3 0 0 0
8 0 0 0
22 12 4 0
53 65 79 108
124 133 134 137
184 236 261 245
253 314 301 266
253 333 315 269
198 267 261 244
128 182 192 194
0 10 13 9
0 0 0 0
0 0 0 0
0 0 0 0
0 0 0 0
0 0 0 0
0 0 0 0
1 0 0 0
12 1 0 0
27 21 19 15
74 96 127 120
136 168 172 166
205 258 261 252
257 315 300 266
245 297 267 253
187 256 248 242
93 156 147 130
0 0 0 0
0 0 0 0
0 0 0 0
0 0 0 0
0 0 0 0
0 0 0 0
0 0 0 0
5 0 0 0
11 0 0 0
29 24 16 9
78 102 129 131
137 172 181 191
215 271 252 252
255 309 290 254
229 296 259 244
167 247 246 233
65 127 134 133
0 0 0 0
0 0 0 0
0 0 0 0
0 0 0 0
0 0 0 0
0 0 0 0
0 0 0 0
4 0 0 0
22 9 0 0
33 36 35 41
90 123 130 124
154 195 212 234
232 303 272 269
257 319 297 262
224 298 261 246
157 234 251 227
40 110 134 131
0 0 0 0
0 0 0 0
0 0 0 0
0 0 0 0
0 0 0 0
0 0 0 0
1 0 0 0
12 0 0 0
27 18 15 8
67 85 113 118
135 151 154 143
196 252 243 249
252 311 292 261
248 305 273 254
198 257 248 251
114 158 146 133
0 0 0 0
0 0 0 0
0 0 0 0
0 0 0 0
0 0 0 0
0 0 0 0
0 0 0 0
1 0 0 0
14 4 0 0
26 22 12 7
72 87 117 119
131 154 156 143
203 253 260 256
256 311 290 260
242 295 265 251
185 253 244 246
93 153 132 135
0 0 0 0
0 0 0 0
0 0 0 0
0 0 0 0
0 0 0 0
0 0 0 0
0 0 0 0
6 0 0 0
12 1 0 0
32 24 22 14
80 114 135 122
140 183 193 203
222 286 254 260
257 308 284 256
228 295 255 259
162 240 258 238
62 130 147 128
0 0 0 0
0 0 0 0
0 0 0 0
0 0 0 0
0 0 0 0
0 0 0 0
1 0 0 0
7 0 0 0
22 9 1 0
42 42 43 46
104 135 127 129
168 212 239 228
249 324 314 277
255 317 302 257
206 275 252 246
135 195 217 240
9 55 94 135
0 0 0 0
0 0 0 0
0 0 0 0
0 0 0 0
0 0 0 0
0 0 0 0
4 0 0 0
16 1 0 0
25 17 9 4
53 60 72 94
113 132 138 133
175 222 246 248
255 306 288 259
251 327 301 255
197 264 257 256
127 181 187 185
1 21 34 39
0 0 0 0
0 0 0 0
0 0 0 0
0 0 0 0
0 0 0 0
0 0 0 0
4 0 0 0
13 3 0 0
28 22 22 18
74 100 130 126
131 187 197 209
205 271 263 261
253 303 278 261
235 310 269 259
178 256 248 243
78 138 133 130
0 0 0 0
0 0 0 0
0 0 0 0
0 0 0 0
0 0 0 0
0 0 0 0
0 0 0 0
6 0 0 0
13 1 0 0
32 27 25 25
90 121 127 131
146 189 199 212
227 294 263 259
255 310 290 257
222 294 260 251
165 242 255 246
50 123 134 136
0 0 0 0
0 0 0 0
0 0 0 0
0 0 0 0
0 0 0 0
0 0 0 0
3 0 0 0
9 0 0 0
18 3 0 0
44 43 46 46
106 129 122 128
173 218 247 245
252 334 325 304
253 347 340 315
207 289 261 255
135 201 221 233
12 55 95 128
0 0 0 0
0 0 0 0
0 0 0 0
0 0 0 0
0 0 0 0
0 0 0 0
4 0 0 0
8 0 0 0
24 16 9 4
55 72 84 121
124 130 143 134
178 227 251 259
257 313 304 273
250 322 301 259
189 257 255 255
120 166 167 153
0 4 1 0
0 0 0 0
0 0 0 0
0 0 0 0
0 0 0 0
0 0 0 0
0 0 0 0
2 0 0 0
8 0 0 0
19 7 0 0
50 55 65 81
109 133 129 132
178 219 243 231
252 330 318 287
254 320 310 265
206 273 255 242
132 187 204 217
1 31 57 82
0 0 0 0
0 0 0 0
0 0 0 0
0 0 0 0
0 0 0 0
0 0 0 0
1 0 0 0
6 0 0 0
22 12 3 0
55 65 79 105
118 140 135 134
182 235 253 241
254 312 299 267
249 326 303 264
192 259 253 250
131 177 183 180
0 11 14 13
0 0 0 0
0 0 0 0
0 0 0 0
0 0 0 0
0 0 0 0
0 0 0 0
2 0 0 0
16 2 0 0
34 29 27 29
79 106 128 130
134 169 168 165
210 260 259 250
255 299 273 266
228 295 261 263
173 248 260 249
67 130 143 131
0 0 0 0
0 0 0 0
0 0 0 0
0 0 0 0
0 0 0 0
0 0 0 0
0 0 0 0
9 0 0 0
21 8 4 0
38 39 40 42
92 125 127 124
156 199 217 242
240 290 262 266
258 307 277 261
221 287 258 256
153 220 241 229
39 102 130 129
0 0 0 0
0 0 0 0
0 0 0 0
0 0 0 0
0 0 0 0
0 0 0 0
1 0 0 0
9 0 0 0
16 7 0 0
50 56 64 83
111 133 132 133
175 222 246 241
253 333 321 295
255 314 304 265
203 267 261 249
139 190 205 218
3 34 57 82
0 0 0 0
0 0 0 0
0 0 0 0
0 0 0 0
0 0 0 0
0 0 0 0
0 0 0 0
6 0 0 0
25 11 4 0
50 58 65 82
114 130 130 126
181 231 255 229
257 319 310 274
251 312 294 258
195 262 255 259
130 182 193 198
0 14 25 28
0 0 0 0
0 0 0 0
0 0 0 0
0 0 0 0
0 0 0 0
0 0 0 0
2 0 0 0
16 1 0 0
29 24 21 21
72 89 115 125
131 158 152 139
207 254 253 253
255 314 291 258
237 315 275 263
181 254 256 239
97 157 148 130
0 0 0 0
0 0 0 0
0 0 0 0
0 0 0 0
0 0 0 0
0 0 0 0
0 0 0 0
6 0 0 0
11 0 0 0
35 30 28 29
82 110 134 119
146 186 200 211
228 293 263 253
259 317 299 260
229 299 264 252
173 252 255 248
64 129 144 136
0 0 0 0
0 0 0 0
0 0 0 0
0 0 0 0
0 0 0 0
0 0 0 0
0 0 0 0
7 0 0 0
21 9 2 0
39 41 40 44
103 127 130 127
166 207 231 255
248 320 306 269
252 320 303 264
206 274 259 243
136 195 216 231
9 53 89 130
0 0 0 0
0 0 0 0
0 0 0 0
0 0 0 0
0 0 0 0
0 0 0 0
1 0 0 0
15 0 0 0
19 7 0 0
51 56 65 81
111 129 133 132
173 213 233 252
252 306 291 260
251 329 304 265
198 269 257 240
135 189 204 213
1 30 53 75
0 0 0 0
0 0 0 0
0 0 0 0
0 0 0 0
0 0 0 0
0 0 0 0
0 0 0 0
8 0 0 0
16 4 0 0
48 53 61 76
112 130 129 131
180 219 247 248
255 312 302 272
252 312 296 262
197 262 253 257
133 193 205 212
1 35 60 88
0 0 0 0
0 0 0 0
0 0 0 0
0 0 0 0
0 0 0 0
0 0 0 0
2 0 0 0
8 0 0 0
16 6 0 0
50 53 61 78
111 125 128 130
170 210 225 250
251 302 284 261
251 328 302 260
202 274 254 246
135 190 204 217
0 27 47 66
0 0 0 0
0 0 0 0
0 0 0 0
0 0 0 0
0 0 0 0
0 0 0 0
1 0 0 0
13 1 0 0
25 21 14 9
57 71 92 120
127 144 134 149
192 245 250 240
253 309 291 254
245 321 294 252
179 256 250 250
115 169 164 151
0 0 0 0
0 0 0 0
0 0 0 0
0 0 0 0
0 0 0 0
0 0 0 0
0 0 0 0
3 0 0 0
6 0 0 0
25 15 11 2
58 68 88 116
129 143 134 152
197 248 254 248
260 320 307 275
249 321 297 251
184 257 256 255
116 168 164 145
0 0 0 0
0 0 0 0
0 0 0 0
0 0 0 0
0 0 0 0
0 0 0 0
0 0 0 0
2 0 0 0
10 1 0 0
30 22 20 19
70 91 112 129
130 153 150 141
199 250 257 243
255 310 293 257
239 311 276 248
179 254 246 240
98 163 157 137
0 0 0 0
0 0 0 0
0 0 0 0
0 0 0 0
0 0 0 0
0 0 0 0
0 0 0 0
4 0 0 0
17 5 0 0
36 34 35 39
84 119 127 124
145 190 201 217
219 285 260 263
256 315 294 260
228 306 263 248
168 247 249 253
57 127 133 124
0 0 0 0
0 0 0 0
0 0 0 0
0 0 0 0
0 0 0 0
0 0 0 0
0 0 0 0
5 0 0 0
21 8 0 0
45 50 55 66
102 132 131 133
166 214 243 238
249 306 291 255
261 323 306 268
218 289 259 249
142 206 227 247
17 66 112 128
0 0 0 0
0 0 0 0
0 0 0 0
0 0 0 0
0 0 0 0
0 0 0 0
2 0 0 0
15 1 0 0
29 25 20 20
76 99 132 132
134 168 176 178
206 255 255 255
255 310 292 259
243 296 265 252
184 255 246 247
95 162 142 127
0 0 0 0
0 0 0 0
0 0 0 0
0 0 0 0
0 0 0 0
0 0 0 0
0 0 0 0
8 0 0 0
17 5 0 0
28 27 21 18
79 105 128 123
138 171 181 185
214 271 251 245
253 326 303 269
222 301 261 261
166 246 250 238
54 124 135 134
0 0 0 0
0 0 0 0
0 0 0 0
0 0 0 0
0 0 0 0
0 0 0 0
0 0 0 0
8 0 0 0
21 9 1 0
39 42 42 45
100 129 130 126
166 209 231 249
246 323 306 276
255 316 300 254
203 274 249 254
132 212 232 251
9 64 113 133
0 0 0 0
0 0 0 0
0 0 0 0
0 0 0 0
0 0 0 0
0 0 0 0
1 0 0 0
9 0 0 0
19 7 0 0
50 56 65 86
108 133 129 132
177 221 245 238
253 310 300 265
254 333 315 266
206 277 256 247
131 192 200 205
0 27 43 57
0 0 0 0
0 0 0 0
0 0 0 0
0 0 0 0
0 0 0 0
0 0 0 0
0 0 0 0
8 0 0 0
16 6 0 0
47 54 61 75
113 130 137 132
178 221 249 245
255 312 305 267
252 312 295 260
197 262 257 245
135 192 205 218
0 30 43 69
0 0 0 0
0 0 0 0
0 0 0 0
0 0 0 0
0 0 0 0
0 0 0 0
1 0 0 0
10 0 0 0
25 16 12 5
60 73 92 117
126 156 150 135
187 252 255 246
255 316 300 262
246 322 299 253
185 254 254 257
117 168 166 157
0 0 0 0
0 0 0 0
0 0 0 0
0 0 0 0
0 0 0 0
0 0 0 0
0 0 0 0
5 0 0 0
10 0 0 0
27 21 19 18
68 89 117 127
129 157 156 149
207 258 261 241
253 308 284 257
241 292 257 249
185 249 255 247
96 157 153 133
0 0 0 0
0 0 0 0
0 0 0 0
0 0 0 0
0 0 0 0
0 0 0 0
0 0 0 0
1 0 0 0
18 3 1 0
32 27 22 22
84 115 118 131
144 189 197 209
226 291 259 253
258 318 299 263
226 300 261 249
168 251 249 248
56 125 131 131
0 0 0 0
0 0 0 0
0 0 0 0
0 0 0 0
0 0 0 0
0 0 0 0
0 0 0 0
8 0 0 0
21 10 4 0
42 45 48 55
110 131 128 136
167 214 231 249
254 305 290 258
254 314 292 260
202 265 255 256
132 185 195 199
1 31 46 63
0 0 0 0
0 0 0 0
0 0 0 0
0 0 0 0
0 0 0 0
0 0 0 0
0 0 0 0
8 0 0 0
21 10 1 0
52 58 66 87
118 131 135 131
179 227 250 251
255 309 289 254
253 333 313 266
197 271 254 253
134 186 200 202
1 30 50 67
0 0 0 0
0 0 0 0
0 0 0 0
0 0 0 0
0 0 0 0
0 0 0 0
1 0 0 0
8 0 0 0
18 7 0 0
49 58 65 86
108 133 130 133
178 220 247 245
253 313 302 269
252 333 313 264
197 268 259 237
134 184 201 206
1 29 50 72
0 0 0 0
0 0 0 0
0 0 0 0
0 0 0 0
0 0 0 0
0 0 0 0
3 0 0 0
5 0 0 0
20 14 3 1
53 64 76 104
117 142 136 131
181 236 254 242
252 317 306 275
251 333 316 270
193 262 258 239
132 178 188 185
0 9 17 15
0 0 0 0
0 0 0 0
0 0 0 0
0 0 0 0
0 0 0 0
0 0 0 0
4 0 0 0
14 2 0 0
29 26 21 20
70 91 115 128
132 159 154 142
206 256 253 255
254 308 284 256
234 311 267 250
184 256 253 235
93 154 143 135
0 0 0 0
0 0 0 0
0 0 0 0
0 0 0 0
0 0 0 0
0 0 0 0
0 0 0 0
1 0 0 0
17 5 0 0
29 27 26 24
85 116 121 119
148 187 199 209
225 293 261 258
256 317 298 268
227 299 260 254
165 243 241 233
60 133 143 132
0 0 0 0
0 0 0 0
0 0 0 0
0 0 0 0
0 0 0 0
0 0 0 0
1 0 0 0
8 0 0 0
19 4 0 0
43 49 53 65
101 130 131 135
162 204 221 240
247 302 276 253
257 311 283 262
214 283 258 244
138 199 221 238
13 58 100 127
0 0 0 0
0 0 0 0
0 0 0 0
0 0 0 0
0 0 0 0
0 0 0 0
4 0 0 0
9 0 0 0
22 8 1 0
55 63 75 97
119 132 135 129
186 236 257 241
258 317 308 272
254 332 316 270
197 269 259 234
127 202 217 229
0 32 53 84
0 0 0 0
0 0 0 0
0 0 0 0
0 0 0 0
0 0 0 0
0 0 0 0
2 0 0 0
17 2 0 0
29 20 12 6
72 92 119 129
132 158 166 161
200 252 255 256
256 320 303 269
244 302 273 245
188 255 247 249
104 170 158 134
0 0 0 0
0 0 0 0
0 0 0 0
0 0 0 0
0 0 0 0
0 0 0 0
0 0 0 0
4 0 0 0
17 6 0 0
36 28 26 20
89 119 126 125
149 194 204 219
222 290 256 268
255 318 298 267
229 306 266 250
168 245 249 226
51 123 133 127
0 0 0 0
0 0 0 0
0 0 0 0
0 0 0 0
0 0 0 0
0 0 0 0
1 0 0 0
4 0 0 0
17 9 2 0
42 46 49 64
102 136 130 128
167 213 240 231
249 325 316 281
255 321 311 269
211 282 249 252
134 217 234 247
13 68 117 130
0 0 0 0
0 0 0 0
0 0 0 0
0 0 0 0
0 0 0 0
0 0 0 0
1 0 0 0
12 1 0 0
31 27 22 21
71 92 117 132
133 160 159 145
206 258 258 259
256 316 295 267
236 313 274 257
178 255 243 244
93 159 150 134
0 0 0 0
0 0 0 0
0 0 0 0
0 0 0 0
0 0 0 0
0 0 0 0
0 0 0 0
3 0 0 0
19 6 0 0
31 26 25 23
84 119 122 127
145 190 201 217
219 286 261 267
254 316 292 260
229 303 269 253
164 243 260 252
60 130 140 129
0 0 0 0
0 0 0 0
0 0 0 0
0 0 0 0
0 0 0 0
0 0 0 0
0 0 0 0
6 0 0 0
21 10 2 0
43 46 50 59
109 133 130 129
169 220 242 241
251 328 317 286
256 316 303 263
207 275 254 244
132 195 210 219
7 36 65 90
0 0 0 0
0 0 0 0
0 0 0 0
0 0 0 0
0 0 0 0
0 0 0 0
1 0 0 0
14 1 0 0
22 8 3 0
48 60 67 90
113 131 129 145
179 225 245 250
254 306 286 261
253 332 310 262
204 278 256 254
136 192 198 203
0 31 51 72
0 0 0 0
0 0 0 0
0 0 0 0
0 0 0 0
0 0 0 0
0 0 0 0
0 0 0 0
9 0 0 0
19 8 1 0
51 58 68 87
115 133 135 130
173 220 244 234
253 313 304 267
253 314 298 259
198 262 248 259
134 193 204 217
3 33 56 82
0 0 0 0
0 0 0 0
0 0 0 0
0 0 0 0
0 0 0 0
0 0 0 0
4 0 0 0
12 2 0 0
29 21 16 12
75 95 121 135
136 167 165 161
204 255 254 260
254 309 287 261
245 300 264 252
191 258 248 245
107 179 175 163
0 0 0 0
0 0 0 0
0 0 0 0
0 0 0 0
0 0 0 0
0 0 0 0
0 0 0 0
2 0 0 0
18 4 0 0
29 27 24 25
84 115 120 120
146 189 198 208
225 294 266 257
256 318 298 259
229 305 265 255
169 250 248 241
51 124 133 127
0 0 0 0
0 0 0 0
0 0 0 0
0 0 0 0
0 0 0 0
0 0 0 0
0 0 0 0
15 0 0 0
23 15 8 1
51 63 75 103
119 129 134 148
185 229 255 238
256 331 320 291
247 336 326 287
188 261 256 263
129 182 193 200
0 13 22 26
0 0 0 0
0 0 0 0
0 0 0 0
0 0 0 0
0 0 0 0
0 0 0 0
5 0 0 0
16 3 0 0
29 26 24 22
71 96 123 115
133 159 163 146
211 263 249 248
255 311 292 264
239 313 275 261
189 251 254 248
88 140 132 126
0 0 0 0
0 0 0 0
0 0 0 0
0 0 0 0
0 0 0 0
0 0 0 0
0 0 0 0
2 0 0 0
17 4 0 0
33 28 23 21
86 119 126 128
148 193 205 221
222 291 256 265
256 316 298 259
229 307 264 248
167 246 250 224
58 128 137 133
0 0 0 0
0 0 0 0
0 0 0 0
0 0 0 0
0 0 0 0
0 0 0 0
0 0 0 0
12 0 0 0
21 12 3 1
54 65 80 106
124 131 137 136
177 227 253 254
254 312 293 262
252 309 284 256
198 261 251 246
124 191 201 204
0 25 42 57
0 0 0 0
0 0 0 0
0 0 0 0
0 0 0 0
0 0 0 0
0 0 0 0
4 0 0 0
11 1 0 0
25 16 9 1
64 79 100 129
130 164 158 150
200 252 256 249
254 306 292 261
247 297 267 252
190 257 247 247
107 179 171 149
0 0 0 0
0 0 0 0
0 0 0 0
0 0 0 0
0 0 0 0
0 0 0 0
0 0 0 0
5 0 0 0
13 1 0 0
31 23 18 11
84 109 132 117
137 174 176 173
220 275 254 257
256 312 286 252
233 306 264 262
172 247 247 255
68 128 141 129
0 0 0 0
0 0 0 0
0 0 0 0
0 0 0 0
0 0 0 0
0 0 0 0
1 0 0 0
13 0 0 0
23 15 6 0
50 58 67 90
110 133 132 133
169 212 231 252
254 305 286 255
252 312 288 253
201 260 253 254
135 186 196 203
5 37 56 80
0 0 0 0
0 0 0 0
0 0 0 0
0 0 0 0
0 0 0 0
0 0 0 0
1 0 0 0
9 0 0 0
15 0
0 0 0 0
0 0 0 0
0 0 0 0
1 0 0 0
5 0 0 0
22 10 3 0
49 55 66 86
113 125 131 130
170 210 223 247
251 305 285 257
252 311 288 253
205 267 259 253
134 185 198 202
4 34 55 77
0 0 0 0
0 0 0 0
0 0 0 0
0 0 0 0
0 0 0 0
0 0 0 0
0 0 0 0
9 0 0 0
19 8 1 0
54 52 64 79
112 125 133 133
171 210 234 250
252 303 289 259
252 311 288 252
205 267 259 262
130 179 186 192
4 30 47 65
0 0 0 0
0 0 0 0
0 0 0 0
0 0 0 0
0 0 0 0
0 0 0 0
1 0 0 0
12 1 0 0
26 18 13 3
59 71 92 118
128 143 133 148
192 246 249 240
259 318 303 269
251 327 306 259
192 262 252 239
121 197 201 203
0 9 12 9
0 0 0 0
0 0 0 0
0 0 0 0
0 0 0 0
0 0 0 0
0 0 0 0
7 0 0 0
16 3 0 0
34 30 30 30
79 102 128 131
139 175 187 201
214 272 258 261
252 307 287 259
229 302 265 252
175 249 249 252
77 132 138 130
0 0 0 0
0 0 0 0
0 0 0 0
0 0 0 0
0 0 0 0
0 0 0 0
0 0 0 0
8 0 0 0
20 7 0 0
38 35 35 32
98 129 123 132
150 194 204 218
237 312 279 248
255 314 289 256
221 292 259 251
159 235 253 231
41 113 137 130
0 0 0 0
0 0 0 0
0 0 0 0
0 0 0 0
0 0 0 0
0 0 0 0
1 0 0 0
8 0 0 0
19 4 0 0
50 51 62 78
115 130 137 129
172 211 230 252
253 306 291 259
256 306 282 260
206 264 254 257
132 186 195 198
4 34 52 74
0 0 0 0
0 0 0 0
0 0 0 0
0 0 0 0
0 0 0 0
0 0 0 0
1 0 0 0
11 0 0 0
21 14 7 3
56 69 84 117
127 135 153 143
186 233 262 242
256 320 310 274
252 333 316 268
194 264 255 254
128 175 179 178
0 5 6 1
0 0 0 0
0 0 0 0
0 0 0 0
0 0 0 0
0 0 0 0
0 0 0 0
0 0 0 0
11 0 0 0
17 9 0 0
47 50 55 64
113 129 128 130
177 218 241 234
255 313 302 266
251 310 290 252
193 258 247 249
130 202 215 231
0 34 58 87
0 0 0 0
0 0 0 0
0 0 0 0
0 0 0 0
0 0 0 0
0 0 0 0
3 0 0 0
8 0 0 0
19 7 0 0
50 57 64 86
114 127 134 134
182 228 250 252
256 317 303 267
252 313 293 254
198 261 253 252
128 194 201 208
0 29 50 67
0 0 0 0
0 0 0 0
0 0 0 0
0 0 0 0
0 0 0 0
0 0 0 0
2 0 0 0
13 2 0 0
27 23 17 15
68 86 114 125
129 156 152 142
200 251 255 247
255 310 288 261
242 291 262 248
181 250 260 244
99 163 157 137
0 0 0 0
0 0 0 0
0 0 0 0
0 0 0 0
0 0 0 0
0 0 0 0
0 0 0 0
8 0 0 0
17 7 0 0
32 29 27 22
84 114 131 122
138 177 182 185
214 274 254 249
256 302 283 262
230 301 264 250
169 245 254 237
62 129 138 128
0 0 0 0
0 0 0 0
0 0 0 0
0 0 0 0
0 0 0 0
0 0 0 0
0 0 0 0
10 0 0 0
18 10 3 0
46 47 53 66
112 129 137 133
171 212 237 252
256 308 297 262
254 313 295 258
198 263 249 263
138 193 208 225
1 37 65 97
0 0 0 0
0 0 0 0
0 0 0 0
0 0 0 0
0 0 0 0
0 0 0 0
1 0 0 0
8 0 0 0
21 10 3 0
47 53 61 78
120 132 137 130
183 232 248 254
257 312 296 264
253 305 283 261
200 261 249 252
125 189 190 190
0 23 41 51
0 0 0 0
0 0 0 0
0 0 0 0
0 0 0 0
0 0 0 0
0 0 0 0
0 0 0 0
8 0 0 0
25 13 9 1
58 71 87 122
128 140 136 141
187 240 255 254
256 322 302 268
250 333 314 266
190 260 259 262
119 182 184 180
0 10 14 9
0 0 0 0
0 0 0 0
0 0 0 0
0 0 0 0
0 0 0 0
0 0 0 0
5 0 0 0
10 0 0 0
29 28 21 22
77 105 130 131
138 172 187 198
211 261 256 263
255 301 279 263
228 297 264 245
168 247 246 241
73 134 149 130
0 0 0 0
0 0 0 0
0 0 0 0
0 0 0 0
0 0 0 0
0 0 0 0
0 0 0 0
8 0 0 0
18 7 0 0
42 44 47 55
97 130 128 135
154 205 216 244
237 320 297 267
258 324 315 275
226 301 264 261
159 234 252 232
39 114 137 127
0 0 0 0
0 0 0 0
0 0 0 0
0 0 0 0
0 0 0 0
0 0 0 0
0 0 0 0
8 0 0 0
18 5 0 0
48 55 60 81
117 129 132 136
181 224 251 257
255 313 300 265
252 313 295 256
202 264 260 256
134 176 184 175
0 26 40 44
0 0 0 0
0 0 0 0
0 0 0 0
0 0 0 0
0 0 0 0
0 0 0 0
0 0 0 0
14 1 0 0
25 21 13 10
68 83 110 115
132 156 157 146
203 252 251 252
256 312 291 260
246 298 263 252
185 256 258 248
109 178 164 144
0 0 0 0
0 0 0 0
0 0 0 0
0 0 0 0
0 0 0 0
0 0 0 0
0 0 0 0
4 0 0 0
10 1 0 0
32 30 29 30
78 109 133 118
137 173 176 176
218 278 254 249
255 308 282 259
223 295 256 259
164 242 257 252
57 130 128 130
0 0 0 0
0 0 0 0
0 0 0 0
0 0 0 0
0 0 0 0
0 0 0 0
1 0 0 0
5 0 0 0
11 2 0 0
38 36 34 36
102 129 136 131
166 209 232 252
251 323 310 278
255 323 311 266
215 284 252 253
137 199 217 238
8 48 82 120
0 0 0 0
0 0 0 0
0 0 0 0
0 0 0 0
0 0 0 0
0 0 0 0
1 0 0 0
14 0 0 0
27 17 9 2
51 65 73 99
115 125 134 134
182 225 252 260
252 309 291 259
251 308 283 255
191 260 256 262
131 190 197 208
1 26 39 58
0 0 0 0
0 0 0 0
0 0 0 0
0 0 0 0
0 0 0 0
0 0 0 0
1 0 0 0
12 1 0 0
26 22 19 17
73 99 126 125
137 170 175 175
206 258 252 257
256 316 298 267
239 292 265 253
181 249 255 248
94 155 137 132
0 0 0 0
0 0 0 0
0 0 0 0
0 0 0 0
0 0 0 0
0 0 0 0
0 0 0 0
5 0 0 0
10 0 0 0
34 31 32 34
81 110 133 125
143 186 197 212
225 291 261 258
258 317 298 268
227 296 259 250
166 244 252 233
58 128 129 130
0 0 0 0
0 0 0 0
0 0 0 0
0 0 0 0
0 0 0 0
0 0 0 0
0 0 0 0
9 0 0 0
22 11 4 0
51 56 65 83
110 126 128 131
169 208 224 244
255 304 284 261
255 314 291 258
204 261 253 251
133 186 198 208
5 38 60 89
0 0 0 0
0 0 0 0
0 0 0 0
0 0 0 0
0 0 0 0
0 0 0 0
2 0 0 0
13 0 0 0
24 16 7 2
53 61 72 94
118 143 131 135
176 221 246 254
253 333 318 289
255 319 302 265
197 263 255 255
122 185 191 193
0 21 34 42
0 0 0 0
0 0 0 0
0 0 0 0
0 0 0 0
0 0 0 0
0 0 0 0
4 0 0 0
13 3 0 0
29 25 23 21
74 92 125 116
133 162 162 150
209 263 248 243
253 311 286 259
242 295 262 255
183 250 249 254
86 145 133 130
0 0 0 0
0 0 0 0
0 0 0 0
0 0 0 0
0 0 0 0
0 0 0 0
0 0 0 0
7 0 0 0
16 6 0 0
38 38 37 45
81 114 119 128
144 183 191 198
221 286 257 256
257 306 282 256
221 293 256 258
166 242 256 246
55 128 133 124
0 0 0 0
0 0 0 0
0 0 0 0
0 0 0 0
0 0 0 0
0 0 0 0
1 0 0 0
3 0 0 0
17 8 1 0
44 47 51 65
104 132 127 134
165 215 233 252
245 317 301 270
252 339 326 292
210 284 260 256
129 213 233 255
7 65 112 130
0 0 0 0
0 0 0 0
0 0 0 0
0 0 0 0
0 0 0 0
0 0 0 0
1 0 0 0
12 1 0 0
26 20 18 13
72 91 120 135
134 160 161 157
200 250 255 254
255 312 290 258
242 297 264 257
186 255 247 252
103 172 160 138
0 0 0 0
0 0 0 0
0 0 0 0
0 0 0 0
0 0 0 0
0 0 0 0
0 0 0 0
5 0 0 0
17 4 0 0
35 32 30 27
84 119 122 127
148 191 203 217
221 289 260 262
257 315 296 255
230 304 261 259
169 246 251 238
56 128 133 130
0 0 0 0
0 0 0 0
0 0 0 0
0 0 0 0
0 0 0 0
0 0 0 0
0 0 0 0
6 0 0 0
23 10 2 0
45 48 56 66
107 127 135 135
169 206 232 250
252 323 308 271
255 312 297 259
198 266 259 261
131 184 198 212
2 32 53 78
0 0 0 0
0 0 0 0
0 0 0 0
0 0 0 0
0 0 0 0
0 0 0 0
1 0 0 0
12 0 0 0
22 18 8 3
56 69 88 115
122 152 133 147
183 245 239 238
257 323 314 280
254 309 291 252
193 256 261 237
122 171 170 159
0 5 4 0
0 0 0 0
0 0 0 0
0 0 0 0
0 0 0 0
0 0 0 0
0 0 0 0
1 0 0 0
7 0 0 0
22 11 4 0
51 61 73 96
114 130 132 135
182 230 250 255
257 318 304 269
252 314 293 255
203 263 258 261
134 180 188 195
0 22 34 41
0 0 0 0
0 0 0 0
0 0 0 0
0 0 0 0
0 0 0 0
0 0 0 0
0 0 0 0
5 0 0 0
22 12 4 0
56 68 81 109
125 133 147 134
183 232 254 237
255 309 293 259
250 330 310 261
194 263 253 252
125 166 162 152
0 3 1 0
0 0 0 0
0 0 0 0
0 0 0 0
0 0 0 0
0 0 0 0
0 0 0 0
2 0 0 0
6 0 0 0
22 10 4 0
54 60 73 99
122 130 134 137
178 227 246 247
255 313 292 263
252 313 291 258
198 261 255 259
133 188 201 210
0 30 44 64
0 0 0 0
0 0 0 0
0 0 0 0
0 0 0 0
0 0 0 0
0 0 0 0
3 0 0 0
6 0 0 0
22 15 7 2
53 61 71 93
117 137 133 135
171 226 244 245
251 310 295 261
251 330 311 264
196 265 257 233
127 174 176 163
0 8 8 1
0 0 0 0
0 0 0 0
0 0 0 0
0 0 0 0
0 0 0 0
0 0 0 0
0 0 0 0
2 0 0 0
21 9 2 0
43 49 52 67
107 130 130 134
173 220 247 239
255 309 298 261
254 316 299 256
209 276 258 245
129 202 222 232
3 53 87 131
0 0 0 0
0 0 0 0
0 0 0 0
0 0 0 0
0 0 0 0
0 0 0 0
1 0 0 0
12 1 0 0
15 8 0 0
52 58 66 85
119 134 136 130
183 234 251 230
253 314 296 264
251 330 310 263
201 274 258 243
136 184 200 209
0 21 32 40
0 0 0 0
0 0 0 0
0 0 0 0
0 0 0 0
0 0 0 0
0 0 0 0
1 0 0 0
16 2 0 0
29 24 23 21
69 89 115 131
130 156 153 144
206 257 256 262
255 314 294 266
243 297 269 254
185 256 247 246
99 165 153 137
0 0 0 0
0 0 0 0
0 0 0 0
0 0 0 0
0 0 0 0
0 0 0 0
0 0 0 0
3 0 0 0
10 1 0 0
33 30 30 34
80 108 129 126
143 184 191 202
220 287 258 261
253 309 284 256
226 295 255 258
165 244 261 252
54 123 139 134
0 0 0 0
0 0 0 0
0 0 0 0
0 0 0 0
0 0 0 0
0 0 0 0
1 0 0 0
8 0 0 0
20 7 1 0
41 41 40 42
100 125 132 125
165 207 230 247
249 302 278 259
258 330 313 266
209 286 259 254
129 216 234 252
8 64 108 121
0 0 0 0
0 0 0 0
0 0 0 0
0 0 0 0
0 0 0 0
0 0 0 0
1 0 0 0
12 1 0 0
18 8 1 0
47 51 54 69
118 132 130 138
183 232 254 228
254 312 290 254
252 310 287 256
199 262 252 261
125 188 192 199
0 24 38 50
0 0 0 0
0 0 0 0
0 0 0 0
0 0 0 0
0 0 0 0
0 0 0 0
1 0 0 0
9 0 0 0
21 8 2 0
54 61 73 96
116 131 134 128
184 235 253 237
255 313 299 265
249 332 311 267
195 268 258 237
130 180 192 194
0 12 22 20
0 0 0 0
0 0 0 0
0 0 0 0
0 0 0 0
0 0 0 0
0 0 0 0
1 0 0 0
13 1 0 0
29 22 20 18
73 98 127 127
133 162 163 153
210 260 251 251
256 315 295 258
242 297 266 253
189 257 249 253
93 159 138 129
0 0 0 0
0 0 0 0
0 0 0 0
0 0 0 0
0 0 0 0
0 0 0 0
0 0 0 0
1 0 0 0
17 4 0 0
32 27 21 22
86 116 122 132
141 180 186 194
215 279 261 256
252 329 311 265
222 303 265 261
167 246 252 239
53 124 139 124
0 0 0 0
0 0 0 0
0 0 0 0
0 0 0 0
0 0 0 0
0 0 0 0
0 0 0 0
3 0 0 0
19 5 0 0
40 49 49 62
103 128 135 128
164 211 236 254
248 322 311 278
255 313 300 262
212 272 255 248
139 195 217 240
15 54 95 129
0 0 0 0
0 0 0 0
0 0 0 0
0 0 0 0
0 0 0 0
0 0 0 0
3 0 0 0
9 0 0 0
23 13 3 0
53 58 70 89
122 131 139 130
186 229 255 232
257 319 305 268
252 312 292 253
196 260 255 258
129 202 216 231
0 27 48 67
0 0 0 0
0 0 0 0
0 0 0 0
0 0 0 0
0 0 0 0
0 0 0 0
1 0 0 0
14 1 0 0
31 24 21 20
71 91 118 130
130 164 162 159
208 260 255 241
252 308 284 254
236 312 269 259
186 254 259 248
93 154 144 131
0 0 0 0
0 0 0 0
0 0 0 0
0 0 0 0
0 0 0 0
0 0 0 0
0 0 0 0
2 0 0 0
16 2 0 0
35 32 34 37
84 121 126 128
139 185 192 202
225 293 259 254
252 314 290 257
225 293 256 252
162 240 261 239
58 126 141 132
0 0 0 0
0 0 0 0
0 0 0 0
0 0 0 0
0 0 0 0
0 0 0 0
1 0 0 0
12 0 0 0
21 14 5 2
51 53 66 76
120 132 136 135
175 220 246 239
255 312 301 268
251 310 291 253
195 263 253 257
135 189 204 206
1 30 56 72
0 0 0 0
0 0 0 0
0 0 0 0
0 0 0 0
0 0 0 0
0 0 0 0
3 0 0 0
10 0 0 0
25 19 11 6
62 74 93 119
129 148 138 137
195 253 253 244
257 311 295 253
250 300 268 256
200 257 253 249
118 180 174 158
0 3 2 0
0 0 0 0
0 0 0 0
0 0 0 0
0 0 0 0
0 0 0 0
0 0 0 0
1 0 0 0
8 0 0 0
23 12 2 0
53 64 71 94
119 146 137 136
174 227 251 252
251 331 321 290
249 317 298 253
205 271 261 240
124 187 195 193
0 20 27 34
0 0 0 0
0 0 0 0
0 0 0 0
0 0 0 0
0 0 0 0
0 0 0 0
5 0 0 0
10 0 0 0
31 24 24 26
77 100 124 127
142 173 186 197
218 276 256 254
254 311 284 252
228 305 266 246
170 248 257 249
63 127 132 133
0 0 0 0
0 0 0 0
0 0 0 0
0 0 0 0
0 0 0 0
0 0 0 0
0 0 0 0
7 0 0 0
22 8 1 0
38 41 40 42
99 128 137 132
157 197 216 241
243 291 261 262
255 303 272 266
216 281 255 247
150 212 241 220
32 82 127 129
0 0 0 0
0 0 0 0
0 0 0 0
0 0 0 0
0 0 0 0
0 0 0 0
2 0 0 0
11 0 0 0
26 15 8 2
53 61 69 93
117 137 133 131
175 230 253 257
252 314 300 266
245 325 301 259
199 268 259 240
128 186 195 198
0 24 34 43
0 0 0 0
0 0 0 0
0 0 0 0
0 0 0 0
0 0 0 0
0 0 0 0
0 0 0 0
8 0 0 0
22 12 1 0
54 65 74 95
119 131 135 147
191 234 257 242
256 312 301 268
249 333 313 269
195 267 258 237
125 171 173 158
0 8 5 0
0 0 0 0
0 0 0 0
0 0 0 0
0 0 0 0
0 0 0 0
0 0 0 0
2 0 0 0
7 0 0 0
22 11 2 0
53 59 73 97
118 134 131 130
177 226 242 247
254 309 286 261
254 310 288 251
203 261 256 256
132 171 173 167
0 12 16 7
0 0 0 0
0 0 0 0
0 0 0 0
0 0 0 0
0 0 0 0
0 0 0 0
0 0 0 0
7 0 0 0
16 3 0 0
41 42 42 49
108 131 131 131
174 219 245 252
251 329 310 274
253 342 330 289
202 279 253 257
134 197 210 226
5 42 70 109
0 0 0 0
0 0 0 0
0 0 0 0
0 0 0 0
0 0 0 0
0 0 0 0
4 0 0 0
12 3 0 0
26 23 19 15
73 97 125 121
130 162 165 159
201 254 250 254
255 307 282 252
243 294 262 255
185 253 242 254
102 167 153 133
0 0 0 0
0 0 0 0
0 0 0 0
0 0 0 0
0 0 0 0
0 0 0 0
0 0 0 0
3 0 0 0
20 5 0 0
31 31 27 25
89 121 130 131
142 186 196 206
222 287 254 254
256 309 282 256
224 293 260 258
166 244 244 236
55 126 127 127
0 0 0 0
0 0 0 0
0 0 0 0
0 0 0 0
0 0 0 0
0 0 0 0
1 0 0 0
12 0 0 0
23 16 7 1
49 57 66 85
119 131 128 126
184 233 255 231
253 313 300 266
252 314 294 261
199 263 258 254
127 191 201 196
0 30 48 62
0 0 0 0
0 0 0 0
0 0 0 0
0 0 0 0
0 0 0 0
0 0 0 0
1 0 0 0
9 3 0 0
19 7 1 0
52 58 69 87
114 128 138 131
181 228 250 255
257 316 301 268
252 312 292 253
198 262 254 259
133 185 198 209
0 19 34 42
0 0 0 0
0 0 0 0
0 0 0 0
0 0 0 0
0 0 0 0
0 0 0 0
1 0 0 0
12 1 0 0
30 24 18 15
73 98 121 119
133 160 161 147
208 257 248 255
259 317 298 263
240 292 262 252
186 252 2178 173
0 1 0 0
0 0 0 0
0 0 0 0
0 0 0 0
0 0 0 0
0 0 0 0
0 0 0 0
5 0 0 0
16 2 0 0
31 27 23 21
74 94 123 116
131 160 161 149
206 257 246 257
255 314 292 255
241 297 265 252
184 255 244 247
99 163 150 138
0 0 0 0
0 0 0 0
0 0 0 0
0 0 0 0
0 0 0 0
0 0 0 0
0 0 0 0
4 0 0 0
18 4 0 0
32 28 23 22
83 116 119 131
149 187 202 219
229 294 267 248
255 332 318 273
223 308 276 246
164 245 254 234
59 126 134 129
0 0 0 0
0 0 0 0
0 0 0 0
0 0 0 0
0 0 0 0
0 0 0 0
1 0 0 0
10 0 0 0
16 7 0 0
43 49 53 66
101 130 126 133
169 217 242 237
250 329 323 297
253 322 316 276
207 276 261 250
132 198 220 239
12 53 88 125
0 0 0 0
0 0 0 0
0 0 0 0
0 0 0 0
0 0 0 0
0 0 0 0
1 0 0 0
10 1 0 0
29 23 22 21
73 99 127 126
131 167 170 167
210 261 251 242
254 331 316 278
229 322 296 249
176 250 255 241
90 150 143 131
0 0 0 0
0 0 0 0
0 0 0 0
0 0 0 0
0 0 0 0
0 0 0 0
0 0 0 0
7 0 0 0
13 1 0 0
36 30 31 34
79 110 128 132
145 185 195 210
217 279 260 260
252 333 308 266
225 306 263 254
164 246 237 250
61 129 143 128
0 0 0 0
0 0 0 0
0 0 0 0
0 0 0 0
0 0 0 0
0 0 0 0
0 0 0 0
3 0 0 0
17 9 1 0
45 44 50 63
106 129 131 131
169 212 242 238
251 328 318 284
254 321 314 274
210 283 253 255
136 199 217 240
8 48 84 124
0 0 0 0
0 0 0 0
0 0 0 0
0 0 0 0
0 0 0 0
0 0 0 0
1 0 0 0
9 0 0 0
19 5 0 0
48 52 61 78
113 134 137 139
175 218 249 242
255 309 298 263
254 318 301 261
200 265 261 256
132 190 205 211
11 42 69 101
0 0 0 0
0 0 0 0
0 0 0 0
0 0 0 0
0 0 0 0
0 0 0 0
2 0 0 0
14 2 0 0
31 25 20 21
71 92 115 129
134 159 158 146
211 258 254 242
256 311 291 261
239 319 283 253
179 257 245 252
93 158 139 127
0 0 0 0
0 0 0 0
0 0 0 0
0 0 0 0
0 0 0 0
0 0 0 0
0 0 0 0
1 0 0 0
17 4 0 0
35 33 35 38
85 119 131 128
142 184 195 202
220 284 257 261
255 309 281 259
229 303 265 255
166 245 254 236
59 130 141 133
0 0 0 0
0 0 0 0
0 0 0 0
0 0 0 0
0 0 0 0
0 0 0 0
1 0 0 0
8 0 0 0
14 1 0 0
43 42 48 58
103 129 131 136
170 212 238 228
251 324 313 278
255 323 311 268
213 285 254 254
135 220 241 230
13 72 119 130
0 0 0 0
0 0 0 0
0 0 0 0
0 0 0 0
0 0 0 0
0 0 0 0
6 0 0 0
16 3 0 0
31 29 26 29
74 95 126 120
127 171 174 168
198 259 253 259
252 311 294 257
235 316 282 250
175 254 244 244
89 150 140 129
0 0 0 0
0 0 0 0
0 0 0 0
0 0 0 0
0 0 0 0
0 0 0 0
0 0 0 0
11 0 0 0
13 2 0 0
38 32 30 27
94 123 131 131
156 195 212 237
232 299 265 259
258 318 293 257
228 303 267 249
161 239 259 239
53 123 146 128
0 0 0 0
0 0 0 0
0 0 0 0
0 0 0 0
0 0 0 0
0 0 0 0
1 0 0 0
14 0 0 0
26 13 9 1
59 71 86 119
125 132 146 134
181 227 253 257
256 317 306 275
253 305 282 259
192 254 259 251
128 177 179 178
0 5 4 0
0 0 0 0
0 0 0 0
0 0 0 0
0 0 0 0
0 0 0 0
0 0 0 0
0 0 0 0
11 0 0 0
17 7 0 0
50 56 67 87
110 137 126 134
177 224 250 248
255 307 295 262
256 305 284 261
198 258 254 261
134 187 201 213
0 30 51 74
0 0 0 0
0 0 0 0
0 0 0 0
0 0 0 0
0 0 0 0
0 0 0 0
5 0 0 0
11 0 0 0
20 13 3 0
59 74 91 118
129 142 133 137
190 245 248 246
258 321 314 280
249 326 309 258
187 259 257 234
122 194 199 201
0 11 16 11
0 0 0 0
0 0 0 0
0 0 0 0
0 0 0 0
0 0 0 0
0 0 0 0
1 0 0 0
18 2 0 0
37 33 34 37
89 122 126 131
149 197 213 238
222 294 265 251
253 311 287 253
229 303 266 248
162 240 255 246
54 126 127 133
0 0 0 0
0 0 0 0
0 0 0 0
0 0 0 0
0 0 0 0
0 0 0 0
0 0 0 0
1 0 0 0
18 10 1 0
47 53 61 76
108 133 134 141
170 215 239 232
254 305 288 254
252 313 288 252
201 262 247 258
134 198 213 231
3 38 67 102
0 0 0 0
0 0 0 0
0 0 0 0
0 0 0 0
0 0 0 0
0 0 0 0
1 0 0 0
13 2 0 0
25 20 17 15
69 91 117 130
131 158 159 152
203 255 254 260
252 305 284 254
237 313 274 259
180 253 246 245
99 173 169 151
0 0 0 0
0 0 0 0
0 0 0 0
0 0 0 0
0 0 0 0
0 0 0 0
0 0 0 0
7 0 0 0
17 5 0 0
35 32 35 36
83 114 132 129
140 179 188 193
214 273 260 255
254 331 313 277
228 309 277 249
170 248 257 251
70 131 128 130
0 0 0 0
0 0 0 0
0 0 0 0
0 0 0 0
0 0 0 0
0 0 0 0
1 0 0 0
6 0 0 0
22 10 4 0
43 46 48 57
100 133 129 129
170 214 243 230
245 318 303 268
253 319 303 268
203 270 259 249
131 208 231 256
2 51 90 124
0 0 0 0
0 0 0 0
0 0 0 0
0 0 0 0
0 0 0 0
0 0 0 0
4 0 0 0
15 1 0 0
25 18 12 5
58 70 88 121
129 143 133 152
192 249 245 245
253 316 297 264
248 309 277 252
199 260 246 253
128 173 174 165
0 3 2 0
0 0 0 0
0 0 0 0
0 0 0 0
0 0 0 0
0 0 0 0
0 0 0 0
2 0 0 0
8 0 0 0
20 7 0 0
53 58 70 91
121 131 131 128
183 233 253 230
257 320 306 269
253 314 297 252
201 264 261 236
129 191 201 204
0 31 51 68
0 0 0 0
0 0 0 0
0 0 0 0
0 0 0 0
0 0 0 0
0 0 0 0
1 0 0 0
12 1 0 0
27 20 15 11
76 93 120 135
131 164 165 161
202 253 251 257
256 314 292 261
237 316 277 252
181 254 246 253
93 160 142 134
0 0 0 0
0 0 0 0
0 0 0 0
0 0 0 0
0 0 0 0
0 0 0 0
0 0 0 0
6 0 0 0
14 0 0 0
33 21 22 12
78 103 125 124
143 179 191 203
220 282 253 259
252 306 280 261
229 301 262 249
167 250 243 250
57 130 128 127
0 0 0 0
0 0 0 0
0 0 0 0
0 0 0 0
0 0 0 0
0 0 0 0
0 0 0 0
10 0 0 0
21 11 2 0
52 57 73 94
115 132 134 133
179 224 245 247
257 306 285 255
252 313 288 255
196 262 251 260
134 194 205 220
4 38 64 94
0 0 0 0
0 0 0 0
0 0 0 0
0 0 0 0
0 0 0 0
0 0 0 0
1 0 0 0
16 1 0 0
25 20 15 9
57 73 93 124
127 147 134 151
192 250 249 245
254 315 303 266
245 319 294 252
184 256 251 245
122 176 178 165
0 4 2 0
0 0 0 0
0 0 0 0
0 0 0 0
0 0 0 0
0 0 0 0
0 0 0 0
2 0 0 0
15 2 0 0
30 23 23 19
74 100 130 130
130 170 172 177
211 263 254 250
254 311 290 259
236 318 280 250
173 250 255 248
84 147 133 130
0 0 0 0
0 0 0 0
0 0 0 0
0 0 0 0
0 0 0 0
0 0 0 0
0 0 0 0
3 0 0 0
17 4 0 0
35 31 27 27
85 117 122 122
142 185 194 200
224 288 261 259
256 316 293 255
228 298 261 249
163 237 254 245
48 120 130 130
0 0 0 0
0 0 0 0
0 0 0 0
0 0 0 0
0 0 0 0
0 0 0 0
2 0 0 0
7 0 0 0
22 11 2 0
51 58 70 90
116 133 136 130
178 225 247 250
252 333 318 287
253 321 310 265
202 268 261 242
134 178 192 193
0 23 37 47
0 0 0 0
0 0 0 0
0 0 0 0
0 0 0 0
0 0 0 0
0 0 0 0
2 0 0 0
9 0 0 0
20 8 0 0
50 57 66 86
116 130 140 127
179 225 246 254
252 312 292 260
252 331 310 270
197 268 258 247
134 188 203 213
1 32 57 84
0 0 0 0
0 0 0 0
0 0 0 0
0 0 0 0
0 0 0 0
0 0 0 0
3 0 0 0
10 0 0 0
26 16 12 2
58 74 92 118
128 146 135 151
192 248 252 247
256 315 301 266
246 322 298 256
187 258 250 252
114 166 159 142
0 0 0 0
0 0 0 0
0 0 0 0
0 0 0 0
0 0 0 0
0 0 0 0
0 0 0 0
2 0 0 0
13 0 0 0
31 25 17 15
69 90 114 126
136 165 165 157
205 257 257 261
253 306 284 258
239 318 280 251
180 253 248 245
97 164 158 137
0 0 0 0
0 0 0 0
0 0 0 0
0 0 0 0
0 0 0 0
0 0 0 0
0 0 0 0
11 0 0 0
17 10 1 0
43 47 50 64
99 129 133 130
154 190 203 214
238 312 281 258
254 331 314 266
209 288 260 256
147 221 249 241
29 96 132 130
0 0 0 0
0 0 0 0
0 0 0 0
0 0 0 0
0 0 0 0
0 0 0 0
1 0 0 0
7 0 0 0
22 11 3 0
55 59 74 96
115 129 139 127
177 226 246 248
255 307 288 259
251 332 309 263
203 276 261 241
136 191 209 217
0 37 63 91
0 0 0 0
0 0 0 0
0 0 0 0
0 0 0 0
0 0 0 0
0 0 0 0
0 0 0 0
5 0 0 0
15 3 0 0
43 43 48 53
113 129 135 132
179 229 249 254
252 315 302 266
255 309 288 261
204 263 254 253
135 182 191 190
2 22 38 41
0 0 0 0
0 0 0 0
0 0 0 0
0 0 0 0
0 0 0 0
0 0 0 0
3 0 0 0
8 0 0 0
18 8 0 0
43 47 49 62
112 130 137 136
170 212 235 257
251 304 292 259
252 328 309 266
201 270 260 245
135 188 204 217
0 27 44 63
0 0 0 0
0 0 0 0
0 0 0 0
0 0 0 0
0 0 0 0
0 0 0 0
1 0 0 0
12 1 0 0
28 24 15 14
70 96 120 121
133 163 164 164
203 257 256 249
254 316 294 260
244 300 270 258
182 250 256 251
105 173 162 142
0 0 0 0
0 0 0 0
0 0 0 0
0 0 0 0
0 0 0 0
0 0 0 0
0 0 0 0
1 0 0 0
13 3 0 0
32 31 30 35
83 111 136 126
146 186 202 219
228 292 264 254
255 319 298 266
225 304 263 249
167 246 243 233
53 121 133 128
0 0 0 0
0 0 0 0
0 0 0 0
0 0 0 0
0 0 0 0
0 0 0 0
1 0 0 0
6 00 0
2 0 14 3 0
54 65 77 99
120 150 140 135
184 250 244 246
254 319 304 266
246 328 309 263
191 262 260 256
128 171 176 165
0 1 1 0
0 0 0 0
0 0 0 0
0 0 0 0
0 0 0 0
0 0 0 0
0 0 0 0
0 0 0 0
6 0 0 0
22 11 3 0
55 63 77 104
117 140 131 133
179 232 250 236
256 312 294 258
251 326 301 253
193 257 249 255
130 181 186 184
0 19 30 34
0 0 0 0
0 0 0 0
0 0 0 0
0 0 0 0
0 0 0 0
0 0 0 0
5 0 0 0
13 3 0 0
31 29 25 24
74 98 128 124
131 179 191 197
202 258 256 255
252 333 318 285
234 323 298 255
179 253 249 248
83 137 133 125
0 0 0 0
0 0 0 0
0 0 0 0
0 0 0 0
0 0 0 0
0 0 0 0
0 0 0 0
6 0 0 0
19 8 0 0
39 38 42 46
87 118 134 127
149 189 201 218
226 295 265 255
257 316 298 265
229 304 262 257
167 247 242 232
57 125 134 138
0 0 0 0
0 0 0 0
0 0 0 0
0 0 0 0
0 0 0 0
0 0 0 0
1 0 0 0
3 0 0 0
21 9 2 0
50 53 58 75
109 130 135 137
171 212 241 234
254 301 288 264
253 313 293 253
203 266 253 257
134 195 210 228
16 51 86 126
0 0 0 0
0 0 0 0
0 0 0 0
0 0 0 0
0 0 0 0
0 0 0 0
2 0 0 0
16 1 0 0
24 13 6 0
57 69 85 112
131 141 132 136
193 250 242 254
253 316 293 258
251 329 306 260
190 261 251 237
115 185 186 175
0 7 7 0
0 0 0 0
0 0 0 0
0 0 0 0
0 0 0 0
0 0 0 0
0 0 0 0
2 0 0 0
15 4 0 0
25 17 9 1
63 76 103 128
126 158 153 140
182 249 259 248
251 314 304 272
242 298 272 258
190 250 256 248
119 163 164 153
0 0 0 0
0 0 0 0
0 0 0 0
0 0 0 0
0 0 0 0
0 0 0 0
0 0 0 0
1 0 0 0
12 3 0 0
32 29 24 27
75 99 122 123
130 167 167 162
210 258 254 250
255 309 288 250
239 316 279 252
185 250 261 246
86 138 130 127
0 0 0 0
0 0 0 0
0 0 0 0
0 0 0 0
0 0 0 0
0 0 0 0
0 0 0 0
2 0 0 0
16 4 0 0
32 30 25 25
89 120 135 128
144 175 185 190
229 289 255 259
257 308 280 263
229 301 262 255
166 245 246 242
56 127 131 131
0 0 0 0
0 0 0 0
0 0 0 0
0 0 0 0
0 0 0 0
0 0 0 0
1 0 0 0
8 0 0 0
16 7 0 0
45 50 59 72
102 130 122 129
167 218 237 230
253 329 318 283
255 323 314 271
207 276 263 252
130 208 235 252
6 54 98 130
0 0 0 0
0 0 0 0
0 0 0 0
0 0 0 0
0 0 0 0
0 0 0 0
0 0 0 0
11 0 0 0
19 9 0 0
52 62 73 92
119 131 131 128
176 227 244 251
253 316 298 261
251 312 289 248
191 262 242 245
128 202 213 221
0 34 60 88
0 0 0 0
0 0 0 0
0 0 0 0
0 0 0 0
0 0 0 0
0 0 0 0
2 0 0 0
15 2 0 0
20 14 3 1
53 64 75 103
128 137 131 133
188 237 260 244
256 319 309 280
249 307 284 257
195 258 262 252
124 171 170 158
0 0 0 0
0 0 0 0
0 0 0 0
0 0 0 0
0 0 0 0
0 0 0 0
0 0 0 0
1 0 0 0
12 1 0 0
31 23 21 17
70 91 111 123
136 166 164 157
208 255 262 249
257 315 300 262
237 315 280 248
184 252 256 249
99 158 142 135
0 0 0 0
0 0 0 0
0 0 0 0
0 0 0 0
0 0 0 0
0 0 0 0
0 0 0 0
2 0 0 0
16 1 0 0
34 32 29 34
84 117 123 130
148 190 204 219
215 283 253 256
256 316 293 256
229 304 261 261
166 245 248 261
56 125 130 134
0 0 0 0
0 0 0 0
0 0 0 0
0 0 0 0
0 0 0 0
0 0 0 0
1 0 0 0
15 1 0 0
20 7 1 0
50 54 64 79
112 127 136 134
173 214 238 226
251 321 308 265
252 341 328 283
201 279 262 257
134 202 222 242
9 48 84 120
0 0 0 0
0 0 0 0
0 0 0 0
0 0 0 0
0 0 0 0
0 0 0 0
1 0 0 0
3 0 0 0
22 11 2 0
55 64 78 104
118 140 133 128
179 229 253 254
252 316 303 269
250 332 312 264
195 261 263 233
132 178 186 182
0 15 20 20
0 0 0 0
0 0 0 0
0 0 0 0
0 0 0 0
0 0 0 0
0 0 0 0
5 0 0 0
9 0 0 0
26 14 6 1
63 79 96 129
127 149 138 137
188 247 245 243
250 342 331 307
247 313 298 262
194 261 246 250
122 190 192 187
0 7 7 1
0 0 0 0
0 0 0 0
0 0 0 0
0 0 0 0
0 0 0 0
0 0 0 0
6 0 0 0
13 0 0 0
32 25 21 20
70 94 117 130
130 159 158 144
208 259 247 261
258 316 297 260
240 298 269 250
183 251 249 241
98 160 155 137
0 0 0 0
0 0 0 0
0 0 0 0
0 0 0 0
0 0 0 0
0 0 0 0
0 0 0 0
6 0 0 0
15 1 0 0
35 27 26 18
87 118 123 121
147 191 203 217
221 285 259 265
256 316 294 260
229 308 265 248
168 247 253 231
53 124 137 125
0 0 0 0
0 0 0 0
0 0 0 0
0 0 0 0
0 0 0 0
0 0 0 0
1 0 0 0
10 0 0 0
22 12 4 0
52 62 73 96
111 133 130 143
171 216 238 256
251 309 295 267
254 311 289 255
202 263 254 255
130 172 177 171
0 19 25 22
0 0 0 0
0 0 0 0
0 0 0 0
0 0 0 0
0 0 0 0
0 0 0 0
2 0 0 0
6 0 0 0
22 14 5 0
49 58 65 83
118 131 137 134
186 232 252 234
253 313 297 264
251 328 308 267
191 259 256 260
129 184 194 203
1 23 38 52
0 0 0 0
0 0 0 0
0 0 0 0
0 0 0 0
0 0 0 0
0 0 0 0
6 0 0 0
16 3 0 0
32 28 24 26
77 104 127 127
138 173 186 195
210 263 258 248
254 301 280 256
232 301 264 250
180 250 253 254
82 135 143 128
0 0 0 0
0 0 0 0
0 0 0 0
0 0 0 0
0 0 0 0
0 0 0 0
0 0 0 0
11 0 0 0
14 3 0 0
42 43 47 56
95 127 125 129
159 202 220 243
239 310 285 257
253 316 292 252
221 296 254 253
158 230 250 223
36 100 137 126
0 0 0 0
0 0 0 0
0 0 0 0
0 0 0 0
0 0 0 0
0 0 0 0
0 0 0 0
15 1 0 0
27 21 17 15
73 92 119 131
136 163 163 158
203 257 254 257
253 307 285 250
240 292 256 257
181 251 255 245
103 171 159 136
0 0 0 0
0 0 0 0
0 0 0 0
0 0 0 0
0 0 0 0
0 0 0 0
0 0 0 0
6 0 0 0
12 1 0 0
33 29 30 34
88 118 126 131
141 184 194 201
220 283 255 259
256 313 289 259
229 303 265 248
164 240 256 246
54 122 130 127
0 0 0 0
0 0 0 0
0 0 0 0
0 0 0 0
0 0 0 0
0 0 0 0
1 0 0 0
6 0 0 0
23 9 3 0
43 42 48 54
107 133 131 137
162 209 228 251
249 323 308 273
252 321 309 266
207 276 261 248
133 206 235 244
7 58 102 128
0 0 0 0
0 0 0 0
0 0 0 0
0 0 0 0
0 0 0 0
0 0 0 0
1 0 0 0
11 0 0 0
21 13 2 0
57 62 78 97
120 150 138 133
175 231 253 257
254 315 304 272
252 330 314 264
191 263 255 254
129 177 182 182
0 8 7 2
0 0 0 0
0 0 0 0
0 0 0 0
0 0 0 0
0 0 0 0
0 0 0 0
1 0 0 0
8 0 0 0
15 4 0 0
49 50 56 73
111 133 136 137
175 217 249 247
251 327 317 285
253 319 308 269
207 275 257 241
132 194 213 222
3 37 61 92
0 0 0 0
0 0 0 0
0 0 0 0
0 0 0 0
0 0 0 0
0 0 0 0
0 0 0 0
6 0 0 0
22 11 1 0
51 62 73 97
113 129 137 134
180 225 246 247
252 307 289 260
252 310 288 252
196 259 253 256
130 180 187 187
0 26 41 51
0 0 0 0
0 0 0 0
0 0 0 0
0 0 0 0
0 0 0 0
0 0 0 0
4 0 0 0
8 0 0 0
22 11 4 0
56 66 82 110
118 145 132 132
179 238 260 248
253 317 306 277
252 331 313 265
194 263 259 255
129 175 183 185
0 11 14 14
0 0 0 0
0 0 0 0
0 0 0 0
0 0 0 0
0 0 0 0
0 0 0 0
6 0 0 0
10 1 0 0
32 27 26 28
80 108 130 131
136 172 174 174
213 273 252 246
253 309 288 253
222 295 263 244
168 246 241 241
68 134 137 130
0 0 0 0
0 0 0 0
0 0 0 0
0 0 0 0
0 0 0 0
0 0 0 0
0 0 0 0
3 0 0 0
18 8 1 0
43 46 52 62
93 123 129 127
151 185 199 212
238 307 276 261
254 312 285 250
215 283 260 245
143 211 234 245
25 82 130 127
0 0 0 0
0 0 0 0
0 0 0 0
0 0 0 0
0 0 0 0
0 0 0 0
0 0 0 0
6 0 0 0
22 11 5 0
51 61 72 95
111 128 137 134
180 223 246 247
255 306 285 258
252 328 303 257
197 265 262 255
131 202 216 227
0 35 58 84
0 0 0 0
0 0 0 0
0 0 0 0
0 0 0 0
0 0 0 0
0 0 0 0
1 0 0 0
12 0 0 0
26 13 5 0
61 75 92 124
126 137 133 132
192 245 248 245
253 316 300 264
248 308 279 257
200 262 250 258
125 171 166 155
0 1 0 0
0 0 0 0
0 0 0 0
0 0 0 0
0 0 0 0
0 0 0 0
0 0 0 0
4 0 0 0
10 0 0 0
26 21 15 11
73 94 119 130
135 165 165 159
204 259 255 250
255 314 297 260
242 297 268 260
179 250 259 248
100 167 151 133
0 0 0 0
0 0 0 0
0 0 0 0
0 0 0 0
0 0 0 0
0 0 0 0
0 0 0 0
6 0 0 0
14 1 0 0
35 32 34 36
89 120 129 127
148 197 212 238
222 294 265 251
255 311 287 252
227 302 260 248
165 245 245 240
55 128 133 127
0 0 0 0
0 0 0 0
0 0 0 0
0 0 0 0
0 0 0 0
0 0 0 0
2 0 0 0
14 0 0 0
24 14 8 1
47 55 62 82
116 131 136 130
172 217 240 236
251 309 297 268
253 302 279 258
201 263 254 241
129 202 214 224
0 40 67 98
0 0 0 0
0 0 0 0
0 0 0 0
0 0 0 0
0 0 0 0
0 0 0 0
2 0 0 0
8 0 0 0
19 7 0 0
49 57 67 86
114 127 134 135
180 227 249 249
256 306 285 258
251 328 303 259
202 272 252 241
130 175 185 181
0 17 26 25
0 0 0 0
0 0 0 0
0 0 0 0
0 0 0 0
0 0 0 0
0 0 0 0
2 0 0 0
15 1 0 0
28 23 17 16
75 97 126 121
136 167 173 168
199 255 253 257
255 312 292 255
242 291 263 249
181 251 261 246
99 163 159 139
0 0 0 0
0 0 0 0
0 0 0 0
0 0 0 0
0 0 0 0
0 0 0 0
0 0 0 0
1 0 0 0
16 2 0 0
27 23 14 9
76 100 131 122
136 170 181 183
211 263 257 252
256 300 274 263
228 295 262 254
172 247 247 234
71 132 143 130
0 0 0 0
0 0 0 0
0 0 0 0
0 0 0 0
0 0 0 0
0 0 0 0
0 0 0 0
8 0 0 0
20 8 0 0
38 36 35 36
92 123 131 123
146 187 196 211
234 302 268 259
252 309 279 259
226 294 262 246
160 234 251 226
38 110 128 134
0 0 0 0
0 0 0 0
0 0 0 0
0 0 0 0
0 0 0 0
0 0 0 0
3 0 0 0
14 2 0 0
18 9 1 0
50 53 58 71
119 131 132 128
184 232 255 229
256 312 292 257
252 313 288 253
195 262 251 251
133 185 194 201
0 25 43 58
0 0 0 0
0 0 0 0
0 0 0 0
0 0 0 0
0 0 0 0
0 0 0 0
3 0 0 0
18 2 0 0
24 16 8 1
58 69 85 112
127 142 134 138
187 240 261 247
256 320 311 279
250 325 310 266
190 263 254 243
115 186 192 187
0 9 15 12
0 0 0 0
0 0 0 0
0 0 0 0
0 0 0 0
0 0 0 0
0 0 0 0
4 0 0 0
18 4 0 0
32 27 24 19
82 114 122 130
145 187 202 213
214 279 249 259
254 311 288 256
229 302 266 247
169 247 259 240
60 123 133 130
0 0 0 0
0 0 0 0
0 0 0 0
0 0 0 0
0 0 0 0
0 0 0 0
1 0 0 0
8 0 0 0
24 7 3 0
44 51 56 72
100 127 133 134
158 201 217 248
248 302 279 256
255 330 310 266
204 284 252 253
129 210 227 242
7 61 100 133
0 0 0 0
0 0 0 0
0 0 0 0
0 0 0 0
0 0 0 0
0 0 0 0
1 0 0 0
13 1 0 0
25 20 12 5
57 71 92 116
130 145 133  0 0
0 0 0 0
2 0 0 0
17 6 0 0
30 27 25 25
85 118 121 124
148 192 201 216
219 284 257 263
255 313 290 262
226 301 261 253
162 239 260 239
58 127 137 135
0 0 0 0
0 0 0 0
0 0 0 0
0 0 0 0
0 0 0 0
0 0 0 0
2 0 0 0
6 0 0 0
22 11 4 0
48 58 65 87
107 129 129 134
166 209 221 245
252 327 311 277
252 316 304 263
202 269 251 245
129 181 189 195
5 32 51 72
0 0 0 0
0 0 0 0
0 0 0 0
0 0 0 0
0 0 0 0
0 0 0 0
1 0 0 0
8 0 0 0
21 12 1 0
48 52 62 74
119 132 135 131
176 220 244 237
253 314 303 269
251 310 292 252
198 259 260 253
130 190 197 200
0 33 51 72
0 0 0 0
0 0 0 0
0 0 0 0
0 0 0 0
0 0 0 0
0 0 0 0
3 0 0 0
9 0 0 0
19 6 1 0
51 58 66 87
114 130 135 135
181 225 245 255
254 315 295 265
252 312 291 259
196 259 255 259
132 185 197 203
0 31 49 68
0 0 0 0
0 0 0 0
0 0 0 0
0 0 0 0
0 0 0 0
0 0 0 0
1 0 0 0
12 0 0 0
23 22 15 14
73 93 120 135
132 163 160 158
204 255 253 261
255 312 292 260
241 288 255 257
179 249 259 245
102 167 159 144
0 0 0 0
0 0 0 0
0 0 0 0
0 0 0 0
0 0 0 0
0 0 0 0
0 0 0 0
2 0 0 0
15 4 0 0
33 29 24 25
88 120 128 130
142 187 194 207
220 284 258 264
252 330 305 265
222 303 262 252
164 246 239 232
52 122 131 125
0 0 0 0
0 0 0 0
0 0 0 0
0 0 0 0
0 0 0 0
0 0 0 0
0 0 0 0
5 0 0 0
18 10 1 0
47 54 61 79
106 128 130 126
169 206 229 247
247 320 303 270
251 333 320 280
203 278 256 252
133 189 204 205
1 37 54 80
0 0 0 0
0 0 0 0
0 0 0 0
0 0 0 0
0 0 0 0
0 0 0 0
2 0 0 0
8 0 0 0
22 11 4 0
55 62 74 98
121 131 133 136
179 227 245 252
255 316 300 265
253 313 294 252
200 263 257 254
126 190 199 202
0 31 53 72
0 0 0 0
0 0 0 0
0 0 0 0
0 0 0 0
0 0 0 0
0 0 0 0
1 0 0 0
13 1 0 0
25 21 15 12
71 94 119 135
132 162 163 157
206 257 258 248
253 313 296 258
238 314 281 246
189 257 255 241
103 166 163 137
0 0 0 0
0 0 0 0
0 0 0 0
0 0 0 0
0 0 0 0
0 0 0 0
0 0 0 0
8 0 0 0
18 8 0 0
38 39 40 46
90 122 131 126
145 179 187 196
226 289 256 248
257 309 281 255
221 290 253 259
165 242 261 244
54 126 139 132
0 0 0 0
0 0 0 0
0 0 0 0
0 0 0 0
0 0 0 0
0 0 0 0
0 0 0 0
13 0 0 0
18 7 1 0
50 54 60 77
112 131 134 137
170 211 229 253
251 322 308 268
252 337 322 278
201 275 255 254
131 186 193 193
6 39 61 81
0 0 0 0
0 0 0 0
0 0 0 0
0 0 0 0
0 0 0 0
0 0 0 0
1 0 0 0
7 0 0 0
22 11 3 0
55 62 77 102
117 139 131 133
181 230 250 233
251 315 302 266
249 326 308 255
194 265 255 257
132 183 189 187
0 13 20 15
0 0 0 0
0 0 0 0
0 0 0 0
0 0 0 0
0 0 0 0
0 0 0 0
5 0 0 0
18 3 0 0
33 30 31 34
75 101 125 127
134 166 174 169
209 262 254 256
253 303 284 252
224 295 263 242
174 248 254 237
76 135 135 130
0 0 0 0
0 0 0 0
0 0 0 0
0 0 0 0
0 0 0 0
0 0 0 0
0 0 0 0
3 0 0 0
21 7 1 0
43 43 47 57
95 128 130 130
149 194 209 224
235 308 280 255
253 315 288 259
217 288 252 259
157 232 248 255
35 103 133 126
0 0 0 0
0 0 0 0
0 0 0 0
0 0 0 0
0 0 0 0
0 0 0 0
1 0 0 0
7 0 0 0
22 11 4 0
53 63 75 100
117 139 131 133
179 232 251 239
252 315 302 268
248 326 303 263
190 262 251 260
132 191 201 210
0 25 40 58
0 0 0 0
0 0 0 0
0 0 0 0
0 0 0 0
0 0 0 0
0 0 0 0
6 0 0 0
15 4 0 0
26 22 14 9
70 93 119 128
139 163 166 160
201 252 261 259
255 313 293 263
237 316 280 253
186 252 257 257
102 162 151 138
0 0 0 0
0 0 0 0
0 0 0 0
0 0 0 0
0 0 0 0
0 0 0 0
0 0 0 0
8 0 0 0
17 5 0 0
33 27 27 26
89 122 130 128
145 187 200 212
229 300 266 258
253 312 283 255
226 301 260 254
165 245 244 239
54 129 131 131
0 0 0 0
0 0 0 0
0 0 0 0
0 0 0 0
0 0 0 0
0 0 0 0
1 0 0 0
8 0 0 0
16 3 0 0
43 48 51 65
101 132 130 135
162 206 225 250
244 316 294 259
252 335 320 274
210 285 260 256
131 202 216 233
13 61 99 132
0 0 0 0
0 0 0 0
0 0 0 0
0 0 0 0
0 0 0 0
0 0 0 0
1 0 0 0
14 2 0 0
23 13 4 0
53 65 76 102
127 138 133 135
185 234 253 241
257 318 309 275
244 318 293 256
183 255 253 251
121 179 178 172
0 3 1 0
0 0 0 0
0 0 0 0
0 0 0 0
0 0 0 0
0 0 0 0
0 0 0 0
3 0 0 0
13 3 0 0
26 21 18 15
74 99 129 122
133 167 170 167
198 253 255 249
255 312 300 260
239 314 280 248
185 257 255 241
99 163 158 133
0 0 0 0
0 0 0 0
0 0 0 0
0 0 0 0
0 0 0 0
0 0 0 0
0 0 0 0
1 0 0 0
15 3 0 0
34 30 30 32
83 113 138 132
144 185 198 216
214 276 257 258
253 309 287 256
224 294 262 254
163 239 259 236
64 136 133 131
0 0 0 0
0 0 0 0
0 0 0 0
0 0 0 0
0 0 0 0
0 0 0 0
0 0 0 0
7 0 0 0
22 13 2 0
44 53 59 74
101 130 126 130
169 216 238 231
249 309 289 264
253 320 300 261
206 273 264 249
135 201 219 247
15 59 99 128
0 0 0 0
0 0 0 0
0 0 0 0
0 0 0 0
0 0 0 0
0 0 0 0
2 0 0 0
9 0 0 0
18 8 0 0
50 59 66 85
119 131 137 130
183 230 255 231
256 316 304 265
250 333 311 268
198 272 253 248
126 197 210 221
0 36 63 95
0 0 0 0
0 0 0 0
0 0 0 0
0 0 0 0
0 0 0 0
0 0 0 0
0 0 0 0
8 0 0 0
23 12 4 0
58 70 86 118
127 138 132 131
179 227 250 256
256 316 303 268
248 328 306 258
191 260 256 254
124 167 169 164
0 3 2 0
0 0 0 0
0 0 0 0
0 0 0 0
0 0 0 0
0 0 0 0
0 0 0 0
1 0 0 0
12 0 0 0
22 16 8 2
56 69 86 121
125 129 143 134
183 232 250 239
254 328 319 290
246 315 301 260
198 264 251 239
127 185 191 193
0 14 22 25
0 0 0 0
0 0 0 0
0 0 0 0
0 0 0 0
0 0 0 0
0 0 0 0
1 0 0 0
18 2 0 0
35 32 31 35
80 108 131 118
142 182 191 199
213 275 257 258
254 303 281 256
222 291 258 250
167 243 244 238
57 124 137 129
0 0 0 0
0 0 0 0
0 0 0 0
0 0 0 0
0 0 0 0
0 0 0 0
0 0 0 0
7 0 0 0
17 2 0 0
43 40 46 54
102 126 139 136
165 211 233 251
247 299 277 258
254 311 281 257
216 282 254 248
143 203 218 238
13 58 93 127
0 0 0 0
0 0 0 0
0 0 0 0
0 0 0 0
0 0 0 0
0 0 0 0
1 0 0 0
6 0 0 0
22 11 2 0
53 64 74 97
118 132 130 133
183 233 256 235
255 318 305 269
252 312 293 253
195 259 250 252
134 182 197 202
0 24 41 57
0 0 0 0
0 0 0 0
0 0 0 0
0 0 0 0
0 0 0 0
0 0 0 0
1 0 0 0
17 1 0 0
26 15 7 1
67 77 102 133
134 147 142 133
192 249 254 243
253 313 298 265
242 295 268 251
194 253 249 246
119 165 156 141
0 0 0 0
0 0 0 0
0 0 0 0
0 0 0 0
0 0 0 0
0 0 0 0
0 0 0 0
1 0 0 0
13 3 0 0
30 27 26 24
77 105 131 126
139 172 185 187
213 268 262 252
253 309 289 261
228 296 267 251
174 252 248 245
74 132 137 128
0 0 0 0
0 0 0 0
0 0 0 0
0 0 0 0
0 0 0 0
0 0 0 0
0 0 0 0
8 0 0 0
16 2 0 0
42 39 43 47
93 130 127 129
150 192 205 215
235 307 276 262
257 318 297 263
221 290 258 249
159 235 251 226
38 108 128 133
0 0 0 0
0 0 0 0
0 0 0 0
0 0 0 0
0 0 0 0
0 0 0 0
1 0 0 0
5 0 0 0
24 13 5 0
47 54 60 77
120 133 127 128
184 231 246 250
256 318 304 270
253 332 317 264
203 273 256 248
135 186 201 210
0 23 36 50
0 0 0 0
0 0 0 0
0 0 0 0
0 0 0 0
0 0 0 0
0 0 0 0
1 0 0 0
15 1 0 0
25 14 7 0
60 75 94 126
126 137 127 137
190 248 248 245
257 314 301 264
248 309 281 251
199 259 247 253
124 166 161 141
0 0 0 0
0 0 0 0
0 0 0 0
0 0 0 0
0 0 0 0
0 0 0 0
0 0 0 0
0 0 0 0
8 0 0 0
21 7 0 0
54 62 70 94
119 131 137 136
184 231 247 256
255 317 302 272
251 313 295 258
193 258 249 257
127 202 215 230
0 38 61 96
0 0 0 0
0 0 0 0
0 0 0 0
0 0 0 0
0 0 0 0
0 0 0 0
1 0 0 0
16 2 0 0
26 14 7 0
65 78 103 128
130 162 157 146
194 256 247 254
254 317 299 263
249 307 280 257
194 258 252 250
117 160 149 132
0 0 0 0
0 0 0 0
0 0 0 0
0 0 0 0
0 0 0 0
0 0 0 0
0 0 0 0
4 0 0 0
16 1 0 0
35 31 27 29
81 109 134 125
142 178 190 197
213 275 258 260
255 310 295 265
231 305 268 256
170 249 247 235
76 140 136 136
0 0 0 0
0 0 0 0
0 0 0 0
0 0 0 0
0 0 0 0
0 0 0 0
0 0 0 0
11 0 0 0
24 11 4 0
49 58 66 86
107 129 132 132
168 205 225 248
247 316 297 262
253 311 289 255
207 272 255 242
134 195 213 227
10 43 74 112
0 0 0 0
0 0 0 0
0 0 0 0
0 0 0 0
0 0 0 0
0 0 0 0
2 0 0 0
11 0 0 0
31 23 16 15
76 99 127 124
132 168 170 172
208 258 252 255
256 317 298 268
242 293 262 256
178 250 253 250
96 159 142 136
0 0 0 0
0 0 0 0
0 0 0 0
0 0 0 0
0 0 0 0
0 0 0 0
0 0 0 0
3 0 0 0
16 2 0 0
35 32 30 34
84 118 126 130
139 179 186 196
215 273 260 257
249 327 309 272
223 300 267 246
170 247 254 245
63 129 134 139
0 0 0 0
0 0 0 0
0 0 0 0
0 0 0 0
0 0 0 0
0 0 0 0
0 0 0 0
6 0 0 0
22 12 5 0
47 54 64 81
108 131 137 138
174 215 246 246
252 328 322 299
252 321 312 277
205 273 259 249
135 196 218 232
14 53 90 127
0 0 0 0
0 0 0 0
0 0 0 0
0 0 0 0
0 0 0 0
0 0 0 0
0 0 0 0
8 0 0 0
28 17 12 5
59 73 91 118
128 139 131 132
191 246 253 243
254 309 292 266
248 303 274 255
195 254 255 249
118 179 171 158
0 2 0 0
0 0 0 0
0 0 0 0
0 0 0 0
0 0 0 0
0 0 0 0
0 0 0 0
3 0 0 0
9 0 0 0
23 16 10 3
66 79 103 128
132 146 144 135
194 249 261 242
252 309 294 260
248 302 272 256
193 254 257 247
120 166 159 142
0 0 0 0
0 0 0 0
0 0 0 0
0 0 0 0
0 0 0 0
0 0 0 0
0 0 0 0
4 0 0 0
17 4 0 0
26 22 13 9
70 95 118 135
131 164 160 157
202 252 259 257
254 312 290 259
240 320 287 262
177 257 247 245
93 163 153 133
0 0 0 0
0 0 0 0
0 0 0 0
0 0 0 0
0 0 0 0
0 0 0 0
0 0 0 0
6 0 0 0
17 7 0 0
37 33 35 37
85 118 129 133
138 181 190 198
221 285 256 258
255 314 288 259
230 301 265 256
164 242 256 248
57 129 132 132
0 0 0 0
0 0 0 0
0 0 0 0
0 0 0 0
0 0 0 0
0 0 0 0
0 0 0 0
9 0 0 0
23 11 4 0
48 54 64 80
110 134 134 137
172 215 238 230
254 303 288 262
256 309 284 256
202 259 261 252
132 191 203 213
8 47 74 112
0 0 0 0
0 0 0 0
0 0 0 0
0 0 0 0
0 0 0 0
0 0 0 0
1 0 0 0
11 0 0 0
21 8 1 0
54 63 74 98
118 131 135 130
183 234 250 231
255 319 303 268
250 313 294 255
194 256 261 259
127 202 216 236
0 32 56 84
0 0 0 0
0 0 0 0
0 0 0 0
0 0 0 0
0 0 0 0
0 0 0 0
1 0 0 0
11 1 0 0
27 21 18 15
73 97 124 120
136 166 170 167
209 258 254 241
258 315 299 265
239 313 282 247
186 254 256 252
99 160 143 127
0 0 0 0
0 0 0 0
0 0 0 0
0 0 0 0
0 0 0 0
0 0 0 0
0 0 0 0
10 0 0 0
15 3 0 0
34 31 29 27
81 114 115 129
146 192 204 218
227 298 266 252
255 315 298 259
225 300 264 254
161 241 257 248
48 119 137 125
0 0 0 0
0 0 0 0
0 0 0 0
0 0 0 0
0 0 0 0
0 0 0 0
0 0 0 0
10 1 0 0
22 15 9 2
55 68 82 113
117 144 131 129
180 235 255 239
255 336 327 297
253 315 305 269
195 263 254 248
130 180 191 190
0 20 32 35
0 0 0 0
0 0 0 0
0 0 0 0
0 0 0 0
0 0 0 0
0 0 0 0
2 0 0 0
12 4 0 0
32 28 28 28
74 97 130 126
133 172 181 187
209 262 257 253
256 316 299 267
241 289 260 247
181 251 255 246
87 138 130 131
0 0 0 0
0 0 0 0
0 0 0 0
0 0 0 0
0 0 0 0
0 0 0 0
0 0 0 0
6 0 0 0
10 1 0 0
34 33 33 37
89 117 136 132
141 177 184 192
224 287 261 248
257 303 278 25 72 91 115
126 157 149 134
190 253 250 255
252 316 294 264
249 306 275 249
193 254 248 252
119 177 174 159
0 0 0 0
0 0 0 0
0 0 0 0
0 0 0 0
0 0 0 0
0 0 0 0
0 0 0 0
2 0 0 0
16 3 0 0
24 20 11 5
70 91 117 131
131 162 159 158
204 257 253 255
256 312 291 262
245 297 261 255
188 256 243 241
97 160 151 131
0 0 0 0
0 0 0 0
0 0 0 0
0 0 0 0
0 0 0 0
0 0 0 0
0 0 0 0
6 0 0 0
11 0 0 0
34 31 27 29
82 114 119 131
143 185 192 207
220 284 253 261
255 313 288 262
228 298 258 249
170 246 257 248
66 128 147 130
0 0 0 0
0 0 0 0
0 0 0 0
0 0 0 0
0 0 0 0
0 0 0 0
1 0 0 0
15 0 0 0
18 7 0 0
47 51 58 72
103 130 127 138
169 216 246 246
250 329 321 298
252 320 312 275
203 268 264 247
131 206 231 253
3 54 96 132
0 0 0 0
0 0 0 0
0 0 0 0
0 0 0 0
0 0 0 0
0 0 0 0
2 0 0 0
4 0 0 0
22 11 2 0
55 63 78 103
120 147 133 137
181 235 256 246
254 312 298 263
252 335 318 268
199 271 251 236
129 179 186 179
0 12 17 9
0 0 0 0
0 0 0 0
0 0 0 0
0 0 0 0
0 0 0 0
0 0 0 0
1 0 0 0
10 0 0 0
26 18 14 9
68 86 114 120
133 153 157 149
199 259 252 255
253 311 292 255
246 302 268 261
189 250 257 245
106 166 160 136
0 0 0 0
0 0 0 0
0 0 0 0
0 0 0 0
0 0 0 0
0 0 0 0
0 0 0 0
4 0 0 0
14 1 0 0
35 30 31 34
78 104 123 133
137 170 172 171
212 266 256 259
253 299 273 269
221 289 256 257
166 245 242 255
63 128 137 129
0 0 0 0
0 0 0 0
0 0 0 0
0 0 0 0
0 0 0 0
0 0 0 0
1 0 0 0
11 0 0 0
16 7 0 0
45 50 53 68
97 132 133 129
154 195 211 229
246 294 271 265
258 312 287 251
212 283 259 249
133 195 209 222
6 52 82 123
0 0 0 0
0 0 0 0
0 0 0 0
0 0 0 0
0 0 0 0
0 0 0 0
1 0 0 0
7 0 0 0
22 12 2 0
51 58 70 88
115 131 129 132
178 222 248 240
250 333 328 304
252 321 314 279
202 272 254 241
134 184 198 194
2 28 48 59
0 0 0 0
0 0 0 0
0 0 0 0
0 0 0 0
0 0 0 0
0 0 0 0
0 0 0 0
9 0 0 0
22 11 3 0
47 53 62 77
116 131 130 126
175 219 240 232
253 310 298 268
251 309 288 253
198 262 249 263
132 185 195 204
0 25 43 59
0 0 0 0
0 0 0 0
0 0 0 0
0 0 0 0
0 0 0 0
0 0 0 0
2 0 0 0
9 0 0 0
20 7 1 0
55 60 70 91
114 129 127 139
176 224 247 242
252 330 322 292
249 335 322 285
198 275 253 248
129 203 220 234
0 32 60 84
0 0 0 0
0 0 0 0
0 0 0 0
0 0 0 0
0 0 0 0
0 0 0 0
2 0 0 0
11 0 0 0
23 13 5 0
53 65 76 103
127 137 134 137
186 238 259 250
256 317 309 280
249 308 284 252
192 257 251 249
124 167 166 153
0 0 0 0
0 0 0 0
0 0 0 0
0 0 0 0
0 0 0 0
0 0 0 0
0 0 0 0
1 0 0 0
10 0 0 0
27 20 18 15
65 85 110 116
132 151 151 135
197 256 242 247
255 316 292 259
244 298 269 254
181 255 245 249
98 167 150 135
0 0 0 0
0 0 0 0
0 0 0 0
0 0 0 0
0 0 0 0
0 0 0 0
0 0 0 0
1 0 0 0
20 4 0 0
31 30 20 19
78 114 134 126
141 182 192 204
212 270 262 250
252 328 301 264
223 303 266 249
166 246 258 247
61 130 143 136
0 0 0 0
0 0 0 0
0 0 0 0
0 0 0 0
0 0 0 0
0 0 0 0
1 0 0 0
13 1 0 0
23 14 9 2
51 58 74 98
116 128 143 135
178 223 246 248
252 329 311 274
254 313 295 257
197 259 251 250
138 183 196 204
2 27 44 54
0 0 0 0
0 0 0 0
0 0 0 0
0 0 0 0
0 0 0 0
0 0 0 0
2 0 0 0
10 0 0 0
23 15 8 2
58 68 86 119
122 128 138 129
179 220 243 252
255 314 296 262
249 327 305 254
191 263 251 237
124 174 178 164
0 10 13 3
0 0 0 0
0 0 0 0
0 0 0 0
0 0 0 0
0 0 0 0
0 0 0 0
4 0 0 0
12 1 0 0
32 19 18 6
72 95 118 131
135 164 163 156
207 254 256 258
256 314 295 258
245 297 261 256
187 254 241 247
105 171 167 145
0 0 0 0
0 0 0 0
0 0 0 0
0 0 0 0
0 0 0 0
0 0 0 0
0 0 0 0
7 0 0 0
15 1 0 0
33 28 25 22
85 118 121 121
147 193 204 218
222 289 262 269
255 315 296 261
225 301 266 246
167 246 248 246
55 129 135 130
0 0 0 0
0 0 0 0
0 0 0 0
0 0 0 0
0 0 0 0
0 0 0 0
1 0 0 0
9 0 0 0
21 12 2 0
43 50 55 66
106 128 133 134
170 206 232 252
251 319 304 264
251 334 319 272
198 271 253 244
138 194 210 230
8 42 76 111
0 0 0 0
0 0 0 0
0 0 0 0
0 0 0 0
0 0 0 0
0 0 0 0
1 0 0 0
13 1 0 0
31 23 20 18
73 98 126 124
137 166 172 169
209 258 254 241
253 309 289 251
240 296 261 246
184 256 244 252
99 167 153 136
0 0 0 0
0 0 0 0
0 0 0 0
0 0 0 0
0 0 0 0
0 0 0 0
0 0 0 0
5 0 0 0
12 1 0 0
28 25 17 12
78 101 125 120
134 168 171 171
208 263 259 254
256 302 282 248
224 290 258 263
162 234 252 256
65 130 144 128
0 0 0 0
0 0 0 0
0 0 0 0
0 0 0 0
0 0 0 0
0 0 0 0
0 0 0 0
6 0 0 0
19 9 1 0
38 39 37 43
92 126 125 127
150 192 207 221
239 313 288 257
256 319 298 257
220 290 260 251
148 214 236 252
30 91 128 136
0 0 0 0
0 0 0 0
0 0 0 0
0 0 0 0
0 0 0 0
0 0 0 0
1 0 0 0
12 0 0 0
23 17 9 4
59 73 90 118
128 137 135 134
185 237 254 248
256 319 309 279
251 326 308 259
188 259 263 240
125 182 191 188
0 10 20 18
0 0 0 0
0 0 0 0
0 0 0 0
0 0 0 0
0 0 0 0
0 0 0 0
2 0 0 0
15 4 0 0
27 24 16 13
77 102 125 123
136 170 176 175
215 272 254 252
253 307 287 259
229 299 261 252
166 244 240 230
68 133 135 127
0 0 0 0
0 0 0 0
0 0 0 0
0 0 0 0
0 0 0 0
0 0 0 0
0 0 0 0
12 0 0 0
24 13 4 0
52 58 72 93
114 130 132 127
174 212 232 246
251 303 288 258
252 328 304 263
200 271 254 259
132 192 206 217
4 39 65 97
0 0 0 0
0 0 0 0
0 0 0 0
0 0 0 0
0 0 0 0
0 0 0 0
2 0 0 0
9 3 0 0
23 15 8 1
53 66 79 104
117 141 128 133
181 233 253 238
253 316 303 268
253 332 316 266
198 268 260 241
128 179 186 184
0 13 16 13
0 0 0 0
0 0 0 0
0 0 0 0
0 0 0 0
0 0 0 0
0 0 0 0
3 0 0 0
11 1 0 0
28 16 9 2
62 74 94 118
127 157 148 133
189 249 258 249
252 333 316 281
247 312 290 252
193 258 245 246
118 165 158 134
0 0 0 0
0 0 0 0
0 0 0 0
0 0 0 0
0 0 0 0
0 0 0 0
0 0 0 0
5 0 0 0
11 0 0 0
26 17 7 1
66 84 104 129
135 153 150 137
200 256 246 252
255 317 301 263
242 295 266 256
192 254 254 259
110 157 148 134
0 0 0 0
0 0 0 0
0 0 0 0
0 0 0 0
0 0 0 0
0 0 0 0
0 0 0 0
2 0 0 0
18 4 0 0
35 33 31 35
82 117 123 126
142 187 197 210
214 279 254 258
253 333 315 274
225 306 273 249
164 247 242 232
66 130 135 129
0 0 0 0
0 0 0 0
0 0 0 0
0 0 0 0
0 0 0 0
0 0 0 0
0 0 0 0
3 0 0 0
19 8 0 0
39 36 40 37
93 125 127 127
155 201 219 241
234 311 283 261
256 319 300 259
216 284 253 259
145 210 230 251
24 81 123 121
0 0 0 0
0 0 0 0
0 0 0 0
0 0 0 0
0 0 0 0
0 0 0 0
1 0 0 0
12 1 0 0
22 15 8 2
57 70 86 117
126 136 154 144
183 234 258 248
251 312 298 262
249 328 309 261
193 260 260 255
128 172 173 159
0 7 5 0
0 0 0 0
0 0 0 0
0 0 0 0
0 0 0 0
0 0 0 0
0 0 0 0
3 0 0 0
11 0 0 0
18 5 1 0
54 58 70 89
118 130 137 133
177 223 243 248
253 314 298 267
252 312 292 259
193 258 250 257
134 182 194 201
0 25 41 58
0 0 0 0
0 0 0 0
0 0 0 0
0 0 0 0
0 0 0 0
0 0 0 0
1 0 0 0
13 0 0 0
26 21 18 15
73 93 120 128
130 158 156 144
204 256 254 254
257 315 293 265
243 297 262 249
186 252 241 236
102 168 159 135
0 0 0 0
0 0 0 0
0 0 0 0
0 0 0 0
0 0 0 0
0 0 0 0
0 0 0 0
8 0 0 0
21 11 1 0
42 45 49 61
92 128 125 125
152 198 217 237
231 302 273 270
256 320 298 265
225 301 265 248
160 237 260 241
44 122 131 131
0 0 0 0
0 0 0 0
0 0 0 265
252 319 302 280 256 254
137 198 211 232
14 60 95 128
0 0 0 0
0 0 0 0
0 0 0 0
0 0 0 0
0 0 0 0
0 0 0 0
1 0 0 0
12 3 0 0
18 8 0 0
50 58 69 90
117 133 136 131
180 225 250 253
255 315 301 266
252 314 294 254
200 263 257 256
132 178 185 193
0 19 29 33
0 0 0 0
0 0 0 0
0 0 0 0
0 0 0 0
0 0 0 0
0 0 0 0
1 0 0 0
9 0 0 0
16 7 0 0
50 57 65 82
111 129 131 132
173 212 234 252
252 306 292 260
252 330 309 266
198 269 258 243
136 187 203 211
1 31 53 77
0 0 0 0
0 0 0 0
0 0 0 0
0 0 0 0
0 0 0 0
0 0 0 0
4 0 0 0
16 2 0 0
25 21 17 16
73 93 120 118
134 163 162 164
204 256 258 249
256 316 297 261
247 298 268 257
190 253 244 254
102 168 152 132
0 0 0 0
0 0 0 0
0 0 0 0
0 0 0 0
0 0 0 0
0 0 0 0
0 0 0 0
7 0 0 0
16 7 0 0
38 37 35 41
83 114 120 128
142 183 191 197
218 280 251 256
256 312 287 255
228 302 264 248
166 249 245 249
54 123 130 129
0 0 0 0
0 0 0 0
0 0 0 0
0 0 0 0
0 0 0 0
0 0 0 0
0 0 0 0
8 0 0 0
18 6 0 0
44 49 53 65
101 127 131 132
166 210 235 249
250 322 313 281
252 340 328 290
210 286 253 261
133 222 246 240
11 73 120 125
0 0 0 0
0 0 0 0
0 0 0 0
0 0 0 0
0 0 0 0
0 0 0 0
5 0 0 0
17 3 0 0
34 27 23 21
77 103 129 129
136 172 179 187
199 259 256 253
251 312 292 259
228 300 266 250
174 251 250 253
82 138 137 132
0 0 0 0
0 0 0 0
0 0 0 0
0 0 0 0
0 0 0 0
0 0 0 0
0 0 0 0
8 0 0 0
17 7 0 0
33 31 27 30
88 121 130 129
142 180 187 197
223 287 257 257
254 332 305 263
219 299 263 249
158 244 241 241
39 115 135 128
0 0 0 0
0 0 0 0
0 0 0 0
0 0 0 0
0 0 0 0
0 0 0 0
1 0 0 0
13 0 0 0
26 17 11 2
56 69 85 116
125 133 146 134
186 241 260 244
256 318 310 273
245 321 299 256
185 258 262 256
120 173 173 162
0 7 4 0
0 0 0 0
0 0 0 0
0 0 0 0
0 0 0 0
0 0 0 0
0 0 0 0
1 0 0 0
11 0 0 0
21 8 1 0
55 63 74 98
115 130 131 148
185 235 253 240
256 314 295 264
252 328 308 267
198 263 252 259
127 197 205 220
0 29 48 72
0 0 0 0
0 0 0 0
0 0 0 0
0 0 0 0
0 0 0 0
0 0 0 0
1 0 0 0
13 3 0 0
29 24 21 20
74 100 128 129
130 180 188 194
210 269 254 253
253 310 295 258
235 309 274 248
175 253 262 243
82 145 134 135
0 0 0 0
0 0 0 0
0 0 0 0
0 0 0 0
0 0 0 0
0 0 0 0
0 0 0 0
6 0 0 0
15 1 0 0
37 36 37 43
90 123 131 130
144 184 195 206
229 298 269 251
255 310 285 256
218 287 253 257
159 235 250 236
40 111 130 131
0 0 0 0
0 0 0 0
0 0 0 0
0 0 0 0
0 0 0 0
0 0 0 0
0 0 0 0
10 1 0 0
19 7 0 0
51 57 66 86
111 128 131 135
177 221 249 249
252 310 298 267
252 311 291 253
194 261 252 258
136 188 203 212
1 32 53 80
0 0 0 0
0 0 0 0
0 0 0 0
0 0 0 0
0 0 0 0
0 0 0 0
0 0 0 0
11 0 0 0
25 19 13 7
67 85 112 117
135 152 155 142
199 254 246 253
256 318 300 265
244 300 264 257
192 254 263 249
112 152 146 133
0 0 0 0
0 0 0 0
0 0 0 0
0 0 0 0
0 0 0 0
0 0 0 0
0 0 0 0
4 0 0 0
17 5 0 0
37 33 32 35
81 115 131 129
136 174 184 185
215 273 260 256
252 310 290 259
223 295 265 250
169 248 245 254
69 134 131 132
0 0 0 0
0 0 0 0
0 0 0 0
0 0 0 0
0 0 0 0
0 0 0 0
2 0 0 0
7 0 0 0
20 7 1 0
43 45 52 62
94 121 126 132
158 194 208 227
242 288 265 253
256 324 308 262
214 290 257 241
147 221 248 242
30 97 132 131
0 0 0 0
0 0 0 0
0 0 0 0
0 0 0 0
0 0 0 0
0 0 0 0
1 0 0 0
9 0 0 0
16 7 0 0
46 51 58 75
106 130 128 135
174 223 249 243
249 328 317 283
257 321 314 272
201 268 259 243
134 188 203 211
5 36 57 82
0 0 0 0
0 0 0 0
0 0 0 0
0 0 0 0
0 0 0 0
0 0 0 0
1 0 0 0
7 0 0 0
20 11 1 0
47 50 57 68
115 129 137 129
177 222 245 250
252 332 314 280
254 319 307 267
203 268 264 245
134 184 197 198
1 30 50 66
0 0 0 0
0 0 0 0
0 0 0 0
0 0 0 0
0 0 0 0
0 0 0 0
3 0 0 0
11 0 0 0
24 17 11 4
67 81 105 129
135 152 151 138
196 251 249 246
253 309 293 264
247 303 271 256
194 258 255 241
118 161 160 135
0 0 0 0
0 0 0 0
0 0 0 0
0 0 0 0
0 0 0 0
0 0 0 0
0 0 0 0
7 0 0 0
13 0 0 0
29 24 15 9
73 99 127 121
134 163 165 151
208 261 254 256
253 309 286 253
241 294 260 249
186 250 247 245
92 152 140 130
0 0 0 0
0 0 0 0
0 0 0 0
0 0 0 0
0 0 0 0
0 0 0 0
0 0 0 0
5 0 0 0
12 1 0 0
32 24 20 14
80 108 127 128
145 185 192 200
225 289 255 261
256 315 293 257
229 303 267 251
167 249 246 246
59 134 128 135
0 0 0 0
0 0 0 0
0 0 0 0
0 0 0 0
0 0 0 0
0 0 0 0
0 0 0 0
8 0 0 0
17 3 0 0
42 40 40 43
103 128 133 130
166 211 235 250
248 316 302 265
254 315 296 256
207 275 251 258
132 213 238 217
8 65 114 121
0 0 0 0
0 0 0 0
0 0 0 0
0 0 0 0
0 0 0 0
0 0 0 0
1 0 0 0
12 0 0 0
25 20 15 9
63 81 107 117
132 143 139 134
190 246 257 242
256 316 302 268
247 305 274 254
187 253 242 250
115 166 158 137
0 0 0 0
0 0 0 0
0 0 0 0
0 0 0 0
0 0 0 0
0 0 0 0
0 0 0 0
1 0 0 0
17 4 0 0
33 31 29 33
76 103 123 129
136 171 173 169
217 272 252 252
256 302 279 259
224 294 260 258
167 244 240 232
69 132 137 136
0 0 0 0
0 0 0 0
0 0 0 0
0 0 0 0
0 0 0 0
0 0 0 0
0 0 0 0
3 0 0 0
16 6 0 0
36 35 32 37
95 126 131 131
156 202 220 244
238 318 294 262
257 325 309 268
215 291 257 256
147 218 242 228
27 88 128 130
0 0 0 0
0 0 0 0
0 0 0 0
0 0 0 0
0 0 0 0
0 0 0 0
0 0 0 0
3 0 0 0
18 8 1 0
44 51 60 74
104 128 126 133
166 212 231 254
251 330 318 289
253 314 299 257
203 264 255 261
133 192 202 224
7 43 69 103
0 0 0 0
0 0 0 0
0 0 0 0
0 0 0 0
0 0 0 0
0 0 0 0
1 0 0 0
14 2 0 0
18 9 1 0
51 55 65 77
114 129 127 133
179 225 248 242
256 315 310 277
256 312 295 255
199 260 252 250
128 173 172 162
0 12 12 2
0 0 0 0
0 0 0 0
0 0 0 0
0 0 0 0
0 0 0 0
0 0 0 0
1 0 0 0
3 0 0 0
20 10 1 0
54 64 79 106
122 143 130 130
183 240 261 244
255 314 302 267
252 313 287 258
203 262 252 249
125 174 168 159
0 11 9 2
0 0 0 0
0 0 0 0
0 0 0 0
0 0 0 0
0 0 0 0
0 0 0 0
2 0 0 0
8 0 0 0
22 11 3 0
53 59 70 89
122 130 137 147
182 224 247 248
255 316 309 281
252 331 315 268
196 264 258 259
128 180 185 188
1 23 32 42
0 0 0 0
0 0 0 0
0 0 0 0
0 0 0 0
0 0 0 0
0 0 0 0
1 0 0 0
14 2 0 0
30 25 20 21
70 91 115 128
130 158 154 143
204 253 260 254
258 312 294 261
242 292 261 248
178 249 258 242
90 154 143 130
0 0 0 0
0 0 0 0
0 0 0 0
0 0 0 0
0 0 0 0
0 0 0 0
0 0 0 0
2 0 0 0
15 4 0 0
28 25 16 13
78 104 125 127
135 173 180 185
215 271 255 246
253 326 309 262
223 302 262 254
165 250 247 247
58 127 143 131
0 0 0 0
0 0 0 0
0 0 0 0
0 0 0 0
0 0 0 0
0 0 0 0
0 0 0 0
2 0 0 0
18 7 0 0
41 46 50 65
103 134 131 132
171 215 249 242
251 328 318 290
253 322 314 272
211 284 255 255
137 198 216 235
7 48 82 120
0 0 0 0
0 0 0 0
0 0 0 0
0 0 0 0
0 0 0 0
0 0 0 0
0 0 0 0
8 0 0 0
16 7 0 0
45 50 58 73
105 131 127 133
167 213 230 248
251 322 308 268
255 314 299 259
201 266 260 255
134 189 203 211
7 42 69 102
0 0 0 0
0 0 0 0
0 0 0 0
0 0 0 0
0 0 0 0
0 0 0 0
2 0 0 0
9 3 0 0
20 8 1 0
47 50 55 67
110 130 132 129
181 223 250 247
257 309 293 258
255 306 279 258
198 258 253 259
136 185 200 210
1 30 52 74
0 0 0 0
0 0 0 0
0 0 0 0
0 0 0 0
0 0 0 0
0 0 0 0
3 0 0 0
9 0 0 0
21 13 3 1
55 68 80 110
124 135 135 136
184 240 261 248
250 339 330 309
248 333 322 285
187 260 261 256
128 176 181 174
0 6 3 0
0 0 0 0
0 0 0 0
0 0 0 0
0 0 0 0
0 0 0 0
0 0 0 0
0 0 0 0
7 0 0 0
21 11 3 0
48 61 69 95
109 137 127 140
170 214 234 252
252 308 292 262
248 331 304 266
198 267 254 263
132 185 195 207
0 29 46 67
0 0 0 0
0 0 0 0
0 0 0 0
0 0 0 0
0 0 0 0
0 0 0 0
1 0 0 0
8 0 0 0
21 12 2 0
53 58 68 88
122 134 134 135
184 232 248 256
256 319 302 269
251 333 314 270
198 265 258 257
126 179 185 178
0 23 30 34
0 0 0 0
0 0 0 0
0 0 0 0
0 0 0 0
0 0 0 0
0 0 0 0
7 0 0 0
12 0 0 0
27 17 8 1
61 74 90 114
130 150 140 135
199 250 257 250
257 314 292 255
249 320 292 256
187 257 246 247
116 171 166 149
0 0 0 0
0 0 0 0
0 0 0 0
0 0 0 0
0 0 0 0
0 0 0 0
0 0 0 0
2 0 0 0
9 0 0 0
28 17 15 11
66 84 108 115
130 158 158 151
203 251 255 248
254 305 289 257
242 290 257 260
181 251 255 251
103 166 155 137
0 0 0 0
0 0 0 0
0 0 0 0
0 0 0 0
0 0 0 0
0 0 0 0
0 0 0 0
6 0 0 0
18 5 0 0
38 37 38 42
89 121 131 131
143 179 187 199
218 282 255 261
253 314 295 262
226 302 266 250
165 247 242 251
51 126 126 131
0 0 0 0
0 0 0 0
0 0 0 0
0 0 0 0
0 0 0 0
0 0 0 0
1 0 0 0
6 0 0 0
16 3 0 0
38 40 42 44
102 127 139 133
167 210 238 227
246 321 306 268
251 339 323 280
202 283 252 256
131 216 237 226
7 65 113 131
0 0 0 0
0 0 0 0
0 0 0 0
0 0 0 0
0 0 0 0
0 0 0 0
3 0 0 0
8 0 0 0
24 14 7 1
53 65 71 95
119 143 135 137
173 224 249 248
252 310 296 264
254 307 283 255
197 261 255 242
127 183 186 181
0 23 35 38
0 0 0 0
0 0 0 0
0 0 0 0
0 0 0 0
0 0 0 0
0 0 0 0
3 0 0 0
7 0 0 0
22 18 10 4
63 80 104 128
129 163 158 145
198 256 246 254
255 319 301 267
243 301 266 256
