## File generated by myo_cap software
## Available from github.com/ddantas/myo_cap
## Timestamp: 2018-05-23_20-57-32
##
## EMG capture settings##
# sampleRate: 2000.0
# channelsPerBoard: 4.0
# nBoards: 1.0
# bitsPerSample: 12.0
##
## Data
## t; ch0; ch1; ch2; ch3

0 0 0 0
0 0 0 0
0 0 0 0
0 0 0 0
0 0 0 0
1 0 0 0
12 1 0 0
19 8 1 0
45 50 52 65
113 131 134 135
173 213 236 247
252 307 4 0 0 0
1 21
74 100 127 124
136 166 172 171
213 262 255 255
251 303 279 255
229 302 264 253
168 247 249 252
70 126 132 134
0 0 0 0
0 0 0 0
0 0 0 0
0 0 0 0
0 0 0 0
0 0 0 0
0 0 0 0
7 0 0 0
22 11 1 0
46 49 58 72
101 129 131 133
158 204 213 245
250 302 279 253
259 318 295 255
217 278 262 250
138 198 221 234
8 54 94 130
0 0 0 0
0 0 0 0
0 0 0 0
0 0 0 0
0 0 0 0
0 0 0 0
0 0 0 0
12 0 0 0
16 7 0 0
50 53 63 80
119 131 135 136
173 216 240 232
249 332 322 295
252 319 309 269
196 262 253 237
133 193 207 218
0 31 57 80
0 0 0 0
0 0 0 0
0 0 0 0
0 0 0 0
0 0 0 0
0 0 0 0
3 0 0 0
9 0 0 0
22 11 3 0
52 58 70 87
119 143 131 131
170 216 243 238
251 326 318 283
250 332 319 272
191 259 260 258
129 173 183 175
0 8 11 2
0 0 0 0
0 0 0 0
0 0 0 0
0 0 0 0
0 0 0 0
0 0 0 0
2 0 0 0
13 1 0 0
16 4 0 0
50 53 61 80
114 128 133 136
179 223 250 245
253 303 287 259
251 305 281 254
198 263 252 255
131 180 186 178
0 16 24 20
0 0 0 0
0 0 0 0
0 0 0 0
0 0 0 0
0 0 0 0
0 0 0 0
1 0 0 0
11 0 0 0
24 15 9 2
60 76 95 127
128 144 134 156
192 249 247 245
255 321 310 275
249 326 309 259
186 260 251 237
115 184 187 175
0 3 3 0
0 0 0 0
0 0 0 0
0 0 0 0
0 0 0 0
0 0 0 0
0 0 0 0
1 0 0 0
12 1 0 0
23 17 9 5
60 75 95 129
127 147 134 156
191 249 243 244
256 313 298 258
247 305 273 256
195 255 261 241
124 167 172 154
0 0 0 0
0 0 0 0
0 0 0 0
0 0 0 0
0 0 0 0
0 0 0 0
0 0 0 0
3 0 0 0
7 0 0 0
15 5 0 0
50 55 65 86
113 133 128 139
176 220 244 234
255 310 298 269
255 310 289 255
194 261 256 239
127 204 216 235
0 32 57 87
0 0 0 0
0 0 0 0
0 0 0 0
0 0 0 0
0 0 0 0
0 0 0 0
1 0 0 0
13 1 0 0
25 19 12 7
62 77 96 127
129 149 137 127
201 251 255 246
256 317 305 266
247 304 274 246
194 254 258 254
117 164 157 135
0 0 0 0
0 0 0 0
0 0 0 0
0 0 0 0
0 0 0 0
0 0 0 0
0 0 0 0
6 0 0 0
8 0 0 0
24 9 3 0
58 69 81 109
127 139 136 134
185 236 256 242
255 311 291 260
248 315 285 255
199 261 252 258
125 173 170 151
0 6 0 0
0 0 0 0
0 0 0 0
0 0 0 0
0 0 0 0
0 0 0 0
0 0 0 0
1 0 0 0
12 1 0 0
23 17 5 2
53 65 77 99
123 150 130 142
177 228 249 255
252 334 318 289
249 336 323 280
187 261 255 244
127 188 198 209
0 10 16 15
0 0 0 0
0 0 0 0
0 0 0 0
0 0 0 0
0 0 0 0
0 0 0 0
4 0 0 0
16 3 0 0
30 29 24 23
78 103 123 130
136 169 169 172
208 259 253 255
252 301 278 249
225 296 254 256
167 248 247 246
69 131 137 130
0 0 0 0
0 0 0 0
0 0 0 0
0 0 0 0
0 0 0 0
0 0 0 0
0 0 0 0
8 0 0 0
15 2 0 0
35 31 31 31
97 127 124 130
153 194 207 222
240 289 267 253
256 309 289 252
217 279 260 243
150 213 245 230
25 78 127 126
0 0 0 0
0 0 0 0
0 0 0 0
0 0 0 0
0 0 0 0
0 0 0 0
1 0 0 0
8 0 0 0
16 3 0 0
45 49 53 67
106 126 132 128
167 203 221 247
249 316 295 265
253 310 287 258
202 264 255 248
131 185 198 201
1 25 42 52
0 0 0 0
0 0 0 0
0 0 0 0
0 0 0 0
0 0 0 0
0 0 0 0
1 0 0 0
13 0 0 0
22 15 5 2
51 61 69 92
119 129 132 139
186 228 250 253
256 315 301 266
252 334 316 267
191 259 256 249
128 181 187 190
0 10 11 6
0 0 0 0
0 0 0 0
0 0 0 0
0 0 0 0
0 0 0 0
0 0 0 0
4 0 0 0
13 0 0 0
22 12 3 0
63 75 92 120
125 137 131 134
192 249 249 249
253 315 301 266
244 302 271 258
198 253 249 248
122 184 178 163
0 6 4 0
0 0 0 0
0 0 0 0
0 0 0 0
0 0 0 0
0 0 0 0
0 0 0 0
1 0 0 0
11 1 0 0
26 19 15 8
69 86 111 118
134 158 163 155
196 253 261 252
254 318 301 263
242 293 264 254
187 257 243 248
103 171 156 132
0 0 0 0
0 0 0 0
0 0 0 0
0 0 0 0
0 0 0 0
0 0 0 0
0 0 0 0
8 0 0 0
10 3 0 0
32 28 27 29
78 109 130 118
139 174 179 175
214 274 258 252
252 303 284 251
224 288 253 258
166 241 256 247
60 130 128 130
0 0 0 0
0 0 0 0
0 0 0 0
0 0 0 0
0 0 0 0
0 0 0 0
1 0 0 0
5 0 0 0
14 1 0 0
38 35 34 37
94 123 132 126
156 193 206 225
237 306 273 265
255 309 277 256
213 275 248 256
141 202 222 249
17 64 110 127
0 0 0 0
0 0 0 0
0 0 0 0
0 0 0 0
0 0 0 0
0 0 0 0
1 0 0 0
15 0 0 0
24 16 12 6
62 74 93 122
127 161 152 142
185 253 258 250
253 309 286 257
242 295 265 252
186 254 245 249
120 177 173 163
0 1 0 0
0 0 0 0
0 0 0 0
0 0 0 0
0 0 0 0
0 0 0 0
0 0 0 0
2 0 0 0
12 1 0 0
29 20 16 12
75 92 122 113
130 161 158 151
206 257 253 259
250 332 310 273
238 324 298 251
179 254 252 254
89 147 134 131
0 0 0 0
0 0 0 0
0 0 0 0
0 0 0 0
0 0 0 0
0 0 0 0
0 0 0 0
6 0 0 0
17 4 0 0
33 27 24 21
89 122 130 127
150 197 210 234
231 300 270 266
254 309 285 257
220 291 255 263
166 241 254 254
54 128 132 132
0 0 0 0
0 0 0 0
0 0 0 0
0 0 0 0
0 0 0 0
0 0 0 0
0 0 0 0
6 0 0 0
22 8 2 0
42 42 43 51
108 131 128 131
173 218 241 233
250 331 318 289
255 313 303 260
210 275 257 245
132 197 211 223
10 50 83 122
0 0 0 0
0 0 0 0
0 0 0 0
0 0 0 0
0 0 0 0
0 0 0 0
4 0 0 0
11 0 0 0
25 19 8 3
62 79 98 131
129 150 142 134
194 246 256 241
256 306 292 262
244 314 281 251
180 250 259 241
114 160 161 135
0 0 0 0
0 0 0 0
0 0 0 0
0 0 0 0
0 0 0 0
0 0 0 0
0 0 0 0
4 0 0 0
9 1 0 0
22 15 5 1
54 63 74 96
120 133 137 137
190 232 251 233
256 332 322 295
250 323 307 264
197 261 248 255
131 191 201 210
0 20 33 45
0 0 0 0
0 0 0 0
0 0 0 0
0 0 0 0
0 0 0 0
0 0 0 0
4 0 0 0
10 0 0 0
29 23 21 20
78 105 131 132
143 178 193 206
216 273 259 254
256 310 290 254
228 304 266 249
172 250 253 247
68 129 130 129
0 0 0 0
0 0 0 0
0 0 0 0
0 0 0 0
0 0 0 0
0 0 0 0
0 0 0 0
7 0 0 0
10 1 0 0
39 38 37 43
98 130 127 130
153 194 209 221
240 287 264 250
254 310 284 248
215 282 259 249
152 216 247 246
31 89 135 127
0 0 0 0
0 0 0 0
0 0 0 0
0 0 0 0
0 0 0 0
0 0 0 0
1 0 0 0
9 0 0 0
22 11 3 0
54 60 74 102
117 137 135 132
176 229 255 231
252 333 321 285
253 317 302 262
191 261 250 260
128 191 200 212
0 17 30 33
0 0 0 0
0 0 0 0
0 0 0 0
0 0 0 0
0 0 0 0
0 0 0 0
4 0 0 0
11 0 0 0
23 14 3 0
57 70 84 115
128 157 148 135
179 247 244 245
251 335 322 293
241 306 284 259
187 251 253 253
120 167 160 142
0 0 0 0
0 0 0 0
0 0 0 0
0 0 0 0
0 0 0 0
0 0 0 0
0 0 0 0
7 0 0 0
16 2 0 0
30 25 20 20
80 105 132 132
142 177 194 208
214 271 263 257
255 311 288 259
229 297 258 256
169 246 251 229
73 131 136 136
0 0 0 0
0 0 0 0
0 0 0 0
0 0 0 0
0 0 0 0
0 0 0 0
0 0 0 0
3 0 0 0
17 6 0 0
32 34 27 30
93 129 130 128
153 197 212 238
234 306 279 248
256 316 295 259
225 298 257 241
159 237 256 232
39 114 135 135
0 0 0 0
0 0 0 0
0 0 0 0
0 0 0 0
0 0 0 0
0 0 0 0
2 0 0 0
15 0 0 0
24 15 6 1
59 72 91 122
128 142 133 147
186 241 257 248
257 313 298 267
245 318 292 251
190 260 254 260
118 189 191 190
0 14 22 21
0 0 0 0
0 0 0 0
0 0 0 0
0 0 0 0
0 0 0 0
0 0 0 0
7 0 0 0
16 6 0 0
26 24 15 13
79 109 127 130
140 175 184 181
219 277 250 255
251 305 274 255
228 298 255 259
164 242 255 243
53 123 132 127
0 0 0 0
0 0 0 0
0 0 0 0
0 0 0 0
0 0 0 0
0 0 0 0
1 0 0 0
3 0 0 0
17 8 1 0
43 46 55 64
107 132 131 137
169 215 239 233
249 323 310 274
255 319 308 260
209 282 255 243
138 202 227 246
7 50 92 127
0 0 0 0
0 0 0 0
0 0 0 0
0 0 0 0
0 0 0 0
0 0 0 0
1 0 0 0
13 1 0 0
18 8 1 0
44 48 52 65
116 134 128 135
177 224 249 248
251 328 316 287
252 336 326 284
199 278 255 252
128 205 218 234
0 39 66 104
0 0 0 0
0 0 0 0
0 0 0 0
0 0 0 0
0 0 0 0
0 0 0 0
4 0 0 0
9 0 0 0
21 8 1 0
55 64 77 102
118 148 131 135
179 239 259 242
252 336 328 294
248 335 326 287
193 264 264 246
126 176 187 186
0 5 9 4
0 0 0 0
0 0 0 0
0 0 0 0
0 0 0 0
0 0 0 0
0 0 0 0
3 0 0 0
13 1 0 0
27 15 12 1
57 71 85 112
128 146 133 148
192 250 246 241
257 315 301 259
247 305 271 256
190 253 259 248
124 168 174 168
0 0 0 0
0 0 0 0
0 0 0 0
0 0 0 0
0 0 0 0
0 0 0 0
0 0 0 0
2 0 0 0
8 0 0 0
19 6 0 0
52 59 68 88
120 135 133 131
178 222 242 250
253 310 294 260
249 327 301 258
193 258 250 246
128 197 208 216
0 32 52 74
0 0 0 0
0 0 0 0
0 0 0 0
0 0 0 0
0 0 0 0
0 0 0 0
3 0 0 0
9 0 0 0
19 6 0 0
53 57 69 88
120 132 131 130
182 232 255 236
256 310 293 264
249 328 303 262
200 267 259 245
133 181 194 201
0 12 25 26
0 0 0 0
0 0 0 0
0 0 0 0
0 0 0 0
0 0 0 0
0 0 0 0
1 0 0 0
9 0 0 0
21 11 4 0
55 68 83 114
125 130 144 127
187 233 257 240
256 310 291 258
249 324 301 254
190 261 250 236
120 191 197 189
0 16 26 22
0 0 0 0
0 0 0 0
0 0 0 0
0 0 0 0
0 0 0 0
0 0 0 0
6 0 0 0
18 5 0 0
27 23 13 9
79 104 129 132
143 177 191 202
215 272 258 256
252 305 288 261
229 301 267 249
164 246 254 252
67 128 134 128
0 0 0 0
0 0 0 0
0 0 0 0
0 0 0 0
0 0 0 0
0 0 0 0
0 0 0 0
8 0 0 0
21 9 2 0
38 37 38 40
102 129 136 127
162 205 227 243
247 298 274 259
257 314 288 254
217 283 255 252
148 215 233 249
22 74 119 130
0 0 0 0
0 0 0 0
0 0 0 0
0 0 0 0
0 0 0 0
0 0 0 0
2 0 0 0
14 2 0 0
17 10 0 0
52 62 72 92
117 140 138 133
178 232 251 236
252 333 320 285
248 316 296 258
200 260 253 253
127 169 165 150
0 5 1 0
0 0 0 0
0 0 0 0
0 0 0 0
0 0 0 0
0 0 0 0
0 0 0 0
2 0 0 0
9 0 0 0
18 9 1 0
45 54 61 74
108 137 132 134
172 218 249 242
254 303 291 254
252 310 288 250
199 262 251 258
131 197 213 232
3 41 66 103
0 0 0 0
0 0 0 0
0 0 0 0
0 0 0 0
0 0 0 0
0 0 0 0
1 0 0 0
12 1 0 0
18 8 1 0
50 58 65 81
120 129 133 142
186 229 250 253
253 309 288 253
253 302 275 249
194 259 245 251
126 175 171 164
0 7 3 0
0 0 0 0
0 0 0 0
0 0 0 0
0 0 0 0
0 0 0 0
0 0 0 0
0 0 0 0
11 0 0 0
17 7 0 0
46 53 60 74
105 132 131 129
171 210 236 250
253 302 287 254
251 305 283 255
196 257 261 259
133 191 205 218
1 33 55 82
0 0 0 0
0 0 0 0
0 0 0 0
0 0 0 0
0 0 0 0
0 0 0 0
5 0 0 0
14 1 0 0
25 18 12 3
61 76 95 125
129 152 142 136
198 250 256 248
255 328 315 280
242 310 289 255
187 251 253 242
119 182 189 179
0 2 5 0
0 0 0 0
0 0 0 0
0 0 0 0
0 0 0 0
0 0 0 0
0 0 0 0
2 0 0 0
12 0 0 0
23 13 2 0
53 69 77 105
129 142 133 135
189 240 258 248
253 317 298 267
247 307 279 256
201 258 257 258
119 179 172 161
0 4 0 0
0 0 0 0
0 0 0 0
0 0 0 0
0 0 0 0
0 0 0 0
0 0 0 0
5 0 0 0
9 0 0 0
20 8 1 0
48 53 58 72
120 130 136 136
181 227 248 252
253 313 298 265
249 327 303 259
189 258 258 248
129 182 189 193
0 12 13 13
0 0 0 0
0 0 0 0
0 0 0 0
0 0 0 0
0 0 0 0
0 0 0 0
5 0 0 0
11 0 0 0
24 14 7 0
60 70 90 118
127 157 150 142
186 253 254 245
252 312 304 267
242 295 262 253
186 254 242 239
122 178 185 178
0 0 0 0
0 0 0 0
0 0 0 0
0 0 0 0
0 0 0 0
0 0 0 0
0 0 0 0
3 0 0 0
14 1 0 0
24 15 7 1
66 83 105 127
135 153 155 143
197 255 242 250
252 315 290 259
240 293 262 253
187 258 246 252
108 182 174 163
0 0 0 0
0 0 0 0
0 0 0 0
0 0 0 0
0 0 0 0
0 0 0 0
0 0 0 0
1 0 0 0
16 2 0 0
32 29 27 29
81 110 131 117
146 185 196 207
220 282 254 256
256 313 287 255
227 304 266 246
169 248 257 242
65 127 143 131
0 0 0 0
0 0 0 0
0 0 0 0
0 0 0 0
0 0 0 0
0 0 0 0
0 0 0 0
11 0 0 0
21 10 1 0
46 51 53 67
116 135 128 137
173 213 236 256
255 304 288 255
252 309 282 257
201 260 250 249
139 182 193 197
1 28 42 61
0 0 0 0
0 0 0 0
0 0 0 0
0 0 0 0
0 0 0 0
0 0 0 0
4 0 0 0
8 0 0 0
19 4 0 0
49 56 63 81
117 130 129 128
176 214 238 248
253 305 291 260
253 303 277 250
198 256 258 259
136 190 203 217
0 31 51 74
0 0 0 0
0 0 0 0
0 0 0 0
0 0 0 0
0 0 0 0
0 0 0 0
1 0 0 0
7 0 0 0
23 10 4 0
55 66 79 109
126 134 144 137
181 225 250 255
255 309 291 255
246 321 294 249
189 260 253 256
129 183 190 189
0 9 12 5
0 0 0 0
0 0 0 0
0 0 0 0
0 0 0 0
0 0 0 0
0 0 0 0
1 0 0 0
4 0 0 0
21 10 4 0
54 66 79 105
121 128 132 132
175 222 245 253
255 312 298 261
250 327 309 257
193 264 258 254
125 168 168 149
0 2 2 0
0 0 0 0
0 0 0 0
0 0 0 0
0 0 0 0
0 0 0 0
0 0 0 0
3 0 0 0
9 0 0 0
18 3 0 0
49 51 58 74
112 134 137 132
176 216 249 249
251 324 312 284
254 337 326 287
207 283 256 258
133 195 206 210
4 41 66 98
0 0 0 0
0 0 0 0
0 0 0 0
0 0 0 0
0 0 0 0
0 0 0 0
0 0 0 0
8 0 0 0
19 3 0 0
50 53 58 76
115 127 134 131
172 212 231 248
255 301 284 259
252 327 303 258
199 267 256 260
134 191 206 225
1 28 51 72
0 0 0 0
0 0 0 0
0 0 0 0
0 0 0 0
0 0 0 0
0 0 0 0
1 0 0 0
12 1 0 0
22 15 6 0
56 73 84 117
129 138 138 136
180 228 251 248
255 314 301 266
247 324 301 253
190 262 249 259
121 171 173 165
0 2 2 0
0 0 0 0
0 0 0 0
0 0 0 0
0 0 0 0
0 0 0 0
0 0 0 0
4 0 0 0
9 0 0 0
21 12 3 0
48 56 62 79
120 131 128 135
180 226 243 248
256 313 298 266
252 332 310 263
198 264 253 250
132 182 187 190
0 12 20 16
0 0 0 0
0 0 0 0
0 0 0 0
0 0 0 0
0 0 0 0
0 0 0 0
2 0 0 0
13 1 0 0
25 21 16 14
75 97 128 121
131 161 167 159
209 256 257 246
256 312 295 261
240 290 260 248
181 249 259 244
99 159 155 134
0 0 0 0
0 0 0 0
0 0 0 0
0 0 0 0
0 0 0 0
0 0 0 0
0 0 0 0
4 0 0 0
19 4 0 0
32 28 23 19
81 112 135 119
146 191 204 221
221 289 257 255
256 313 291 256
227 301 261 252
162 243 240 228
56 127 137 131
0 0 0 0
0 0 0 0
0 0 0 0
0 0 0 0
0 0 0 0
0 0 0 0
1 0 0 0
4 0 0 0
19 6 1 0
41 42 43 45
104 133 127 129
166 214 239 227
247 303 281 250
258 318 297 259
215 282 262 252
134 195 213 227
7 49 84 120
0 0 0 0
0 0 0 0
0 0 0 0
0 0 0 0
0 0 0 0
0 0 0 0
1 0 0 0
10 0 0 0
23 12 4 0
54 67 79 110
124 128 139 133
179 225 246 250
256 307 288 261
249 306 273 259
203 263 249 259
123 188 192 188
0 14 23 21
0 0 0 0
0 0 0 0
0 0 0 0
0 0 0 0
0 0 0 0
0 0 0 0
6 0 0 0
17 3 0 0
31 30 26 29
78 104 123 127
141 171 177 173
217 272 254 247
253 303 281 248
228 294 257 256
166 241 255 248
58 126 133 131
0 0 0 0
0 0 0 0
0 0 0 0
0 0 0 0
0 0 0 0
0 0 0 0
1 0 0 0
6 0 0 0
21 8 3 0
38 37 40 42
102 129 138 131
160 202 218 242
249 301 279 253
255 328 308 262
205 282 256 250
129 214 238 220
7 64 114 129
0 0 0 0
0 0 0 0
0 0 0 0
0 0 0 0
0 0 0 0
0 0 0 0
1 0 0 0
13 0 0 0
24 14 7 1
54 61 77 96
122 148 133 135
178 227 253 255
252 334 323 296
249 332 318 273
190 262 258 244
130 191 204 211
0 21 34 47
0 0 0 0
0 0 0 0
0 0 0 0
0 0 0 0
0 0 0 0
0 0 0 0
1 0 0 0
12 1 0 0
31 27 22 19
79 107 132 131
136 171 183 188
206 263 255 251
251 310 291 254
227 302 261 255
169 247 238 222
73 134 145 132
0 0 0 0
0 0 0 0
0 0 0 0
0 0 0 0
0 0 0 0
0 0 0 0
0 0 0 0
6 0 0 0
18 8 1 0
42 41 42 52
92 125 125 128
155 200 218 240
233 305 277 257
253 311 286 250
214 280 258 247
156 225 255 225
31 89 125 130
0 0 0 0
0 0 0 0
0 0 0 0
0 0 0 0
0 0 0 0
0 0 0 0
1 0 0 0
8 0 0 0
17 6 0 0
47 50 57 72
108 134 134 135
172 216 242 238
249 321 310 269
249 334 319 273
198 271 253 245
134 195 213 234
1 33 59 86
0 0 0 0
0 0 0 0
0 0 0 0
0 0 0 0
0 0 0 0
0 0 0 0
1 0 0 0
11 0 0 0
21 14 4 2
58 68 83 113
125 128 143 131
184 229 248 262
256 309 290 263
252 330 307 266
194 263 256 254
128 174 178 166
0 2 1 0
0 0 0 0
0 0 0 0
0 0 0 0
0 0 0 0
0 0 0 0
0 0 0 0
1 0 0 0
9 0 0 0
21 9 1 0
50 55 61 78
114 131 139 132
177 221 248 245
251 305 291 264
253 303 279 255
198 259 249 260
136 194 209 230
3 38 63 97
0 0 0 0
0 0 0 0
0 0 0 0
0 0 0 0
0 0 0 0
0 0 0 0
1 0 0 0
6 0 0 0
20 10 3 0
52 60 69 98
114 129 129 143
180 228 250 256
254 314 297 263
251 310 288 257
194 259 252 261
126 187 194 198
0 26 42 54
0 0 0 0
0 0 0 0
0 0 0 0
0 0 0 0
0 0 0 0
0 0 0 0
3 0 0 0
9 0 0 0
19 7 0 0
50 58 66 88
121 131 130 127
183 236 257 237
253 310 294 258
249 328 304 258
193 263 254 254
128 198 210 221
0 32 50 74
0 0 0 0
0 0 0 0
0 0 0 0
0 0 0 0
0 0 0 0
0 0 0 0
2 0 0 0
9 0 0 0
19 7 0 0
54 59 71 97
117 131 132 135
184 233 249 231
256 316 303 266
252 312 290 256
191 261 258 256
128 200 216 223
0 24 46 60
0 0 0 0
0 0 0 0
0 0 0 0
0 0 0 0
0 0 0 0
0 0 0 0
0 0 0 0
9 0 0 0
22 13 4 0
62 73 91 119
132 146 133 151
193 247 243 247
253 314 298 270
247 309 275 250
192 259 254 243
128 173 184 173
0 1 4 0
0 0 0 0
0 0 0 0
0 0 0 0
0 0 0 0
0 0 0 0
0 0 0 0
2 0 0 0
8 0 0 0
20 4 0 0
50 54 63 81
117 132 134 127
176 220 243 236
254 308 297 266
251 308 287 253
195 257 253 252
133 185 194 201
0 25 42 57
0 0 0 0
0 0 0 0
0 0 0 0
0 0 0 0
0 0 0 0
0 0 0 0
4 0 0 0
8 0 0 0
24 12 5 0
56 68 84 114
128 136 135 134
184 233 251 231
256 316 304 266
249 331 310 263
191 262 258 255
121 166 162 143
0 3 0 0
0 0 0 0
0 0 0 0
0 0 0 0
0 0 0 0
0 0 0 0
0 0 0 0
0 0 0 0
8 0 0 0
21 11 1 0
46 53 59 74
117 133 131 129
176 222 246 239
252 313 301 266
251 306 288 254
196 256 260 261
128 202 214 236
0 31 59 89
0 0 0 0
0 0 0 0
0 0 0 0
0 0 0 0
0 0 0 0
0 0 0 0
6 0 0 0
16 3 0 0
24 20 14 7
66 87 116 125
130 157 159 155
193 251 255 258
251 312 292 264
232 316 277 253
179 254 245 252
102 179 166 148
0 0 0 0
0 0 0 0
0 0 0 0
0 0 0 0
0 0 0 0
0 0 0 0
0 0 0 0
4 0 0 0
15 3 0 0
28 23 13 8
73 97 123 117
127 173 180 179
204 264 259 253
255 311 296 262
228 300 266 254
173 248 256 250
82 140 131 128
0 0 0 0
0 0 0 0
0 0 0 0
0 0 0 0
0 0 0 0
0 0 0 0
0 0 0 0
9 0 0 0
10 1 0 0
37 33 35 39
89 124 132 131
144 183 190 203
228 293 257 254
252 314 287 256
223 292 254 253
159 235 254 232
44 119 128 131
0 0 0 0
0 0 0 0
0 0 0 0
0 0 0 0
0 0 0 0
0 0 0 0
2 0 0 0
14 0 0 0
24 17 7 1
59 69 87 119
127 139 137 136
184 233 255 240
253 309 293 258
249 327 305 265
192 260 255 255
127 172 174 172
0 1 4 0
0 0 0 0
0 0 0 0
0 0 0 0
0 0 0 0
0 0 0 0
0 0 0 0
1 0 0 0
7 0 0 0
20 12 1 0
46 53 58 72
119 134 135 136
175 221 247 239
254 311 299 267
251 310 288 248
195 258 261 256
133 186 201 211
0 25 40 58
0 0 0 0
0 0 0 0
0 0 0 0
0 0 0 0
0 0 0 0
0 0 0 0
1 0 0 0
14 2 0 0
24 11 2 0
53 66 74 97
125 133 142 137
175 219 247 244
253 301 287 254
247 302 269 262
199 259 244 252
128 175 170 159
0 4 1 0
0 0 0 0
0 0 0 0
0 0 0 0
0 0 0 0
0 0 0 0
0 0 0 0
1 0 0 0
13 1 0 0
25 17 10 2
55 70 86 118
133 146 134 157
195 250 247 247
254 334 328 296
241 303 282 258
190 257 256 255
120 187 187 187
0 3 1 0
0 0 0 0
0 0 0 0
0 0 0 0
0 0 0 0
0 0 0 0
0 0 0 0
0 0 0 0
8 0 0 0
21 11 3 0
52 60 72 91
120 143 137 131
178 233 250 234
255 309 294 255
249 323 299 255
187 257 253 251
131 187 194 199
0 17 27 35
0 0 0 0
0 0 0 0
0 0 0 0
0 0 0 0
0 0 0 0
0 0 0 0
5 0 0 0
11 0 0 0
29 25 19 19
81 109 129 127
142 183 187 198
215 273 261 262
253 302 280 259
230 301 261 249
170 247 247 238
68 126 136 131
0 0 0 0
0 0 0 0
0 0 0 0
0 0 0 0
0 0 0 0
0 0 0 0
0 0 0 0
7 0 0 0
18 6 0 0
35 36 30 34
95 128 132 129
153 200 217 238
234 304 279 263
255 311 284 253
220 292 253 261
157 229 252 257
33 99 131 127
0 0 0 0
0 0 0 0
0 0 0 0
0 0 0 0
0 0 0 0
0 0 0 0
1 0 0 0
8 0 0 0
22 11 2 0
52 60 73 95
112 131 129 146
178 228 249 253
250 339 324 299
251 336 326 289
204 277 252 254
133 184 192 190
0 28 38 50
0 0 0 0
0 0 0 0
0 0 0 0
0 0 0 0
0 0 0 0
0 0 0 0
1 0 0 0
12 1 0 0
23 18 12 4
58 74 90 123
129 149 140 133
193 248 247 249
255 321 311 280
247 308 281 257
193 255 255 253
116 160 148 133
0 0 0 0
0 0 0 0
0 0 0 0
0 0 0 0
0 0 0 0
0 0 0 0
0 0 0 0
7 0 0 0
16 4 0 0
26 19 8 2
60 76 91 122
128 161 155 143
191 250 253 250
253 308 285 252
246 302 266 253
192 254 255 242
121 165 167 152
0 0 0 0
0 0 0 0
0 0 0 0
0 0 0 0
0 0 0 0
0 0 0 0
0 0 0 0
3 0 0 0
14 3 0 0
26 16 12 2
72 93 121 131
135 166 172 177
200 250 249 255
254 308 288 253
233 306 266 263
177 252 240 240
97 162 155 135
0 0 0 0
0 0 0 0
0 0 0 0
0 0 0 0
0 0 0 0
0 0 0 0
0 0 0 0
7 0 0 0
17 7 0 0
35 33 35 35
84 119 130 130
141 185 195 205
220 284 260 264
255 303 275 263
221 291 253 259
166 243 241 238
53 126 135 127
0 0 0 0
0 0 0 0
0 0 0 0
0 0 0 0
0 0 0 0
0 0 0 0
0 0 0 0
6 0 0 0
21 8 0 0
38 40 38 41
95 122 132 124
156 192 204 226
240 287 258 254
256 309 283 252
216 282 259 245
148 211 240 226
21 71 120 130
0 0 0 0
0 0 0 0
0 0 0 0
0 0 0 0
0 0 0 0
0 0 0 0
4 0 0 0
9 1 0 0
15 4 0 0
49 53 59 80
114 129 132 131
175 222 247 241
251 327 315 282
253 310 293 255
193 258 251 257
134 188 201 213
0 28 47 69
0 0 0 0
0 0 0 0
0 0 0 0
0 0 0 0
0 0 0 0
0 0 0 0
1 0 0 0
9 1 0 0
18 3 1 0
50 55 63 82
114 132 122 132
171 214 231 254
254 303 290 258
253 299 275 259
197 258 255 253
133 185 195 201
0 24 39 53
0 0 0 0
0 0 0 0
0 0 0 0
0 0 0 0
0 0 0 0
0 0 0 0
2 0 0 0
8 0 0 0
21 11 2 0
53 60 70 90
121 134 144 136
181 224 242 248
254 314 296 265
250 330 309 265
195 264 262 232
129 176 184 172
0 12 18 14
0 0 0 0
0 0 0 0
0 0 0 0
0 0 0 0
0 0 0 0
0 0 0 0
2 0 0 0
12 1 0 0
25 20 13 8
71 91 120 131
135 165 173 176
202 252 255 256
254 309 286 253
237 319 279 246
182 250 259 248
99 158 151 134
0 0 0 0
0 0 0 0
0 0 0 0
0 0 0 0
0 0 0 0
0 0 0 0
0 0 0 0
3 0 0 0
16 1 0 0
27 21 12 6
76 100 131 122
133 165 168 165
203 255 254 250
249 326 303 264
227 305 265 257
168 246 248 247
67 129 133 128
0 0 0 0
0 0 0 0
0 0 0 0
0 0 0 0
0 0 0 0
0 0 0 0
0 0 0 0
8 0 0 0
18 8 0 0
36 35 35 33
91 125 123 125
149 189 197 205
229 297 266 260
252 330 311 271
218 300 264 259
158 234 251 234
35 106 137 132
0 0 0 0
0 0 0 0
0 0 0 0
0 0 0 0
0 0 0 0
0 0 0 0
0 0 0 0
8 0 0 0
14 6 0 0
49 53 61 75
107 134 132 137
174 221 246 241
252 326 317 274
251 319 304 262
195 262 255 243
135 191 208 220
0 31 52 80
0 0 0 0
0 0 0 0
0 0 0 0
0 0 0 0
0 0 0 0
0 0 0 0
1 0 0 0
11 0 0 0
19 9 1 0
50 54 61 74
115 130 129 134
183 232 254 261
254 316 299 267
253 334 313 266
193 261 258 252
128 177 181 174
0 16 22 21
0 0 0 0
0 0 0 0
0 0 0 0
0 0 0 0
0 0 0 0
0 0 0 0
5 0 0 0
17 4 1 0
27 17 9 1
67 84 110 119
132 149 145 138
193 251 255 250
255 313 291 259
245 299 262 252
182 253 256 249
111 184 178 164
0 1 0 0
0 0 0 0
0 0 0 0
0 0 0 0
0 0 0 0
0 0 0 0
0 0 0 0
2 0 0 0
16 2 0 0
32 29 23 21
77 108 125 130
143 183 192 202
213 270 261 258
252 308 280 252
222 292 256 263
161 232 257 244
59 126 140 127
0 0 0 0
0 0 0 0
0 0 0 0
0 0 0 0
0 0 0 0
0 0 0 0
0 0 0 0
10 0 0 0
15 4 0 0
44 47 53 66
105 129 127 134
166 210 236 248
247 322 309 275
255 316 302 261
207 272 255 241
133 199 220 236
9 48 83 121
0 0 0 0
0 0 0 0
0 0 0 0
0 0 0 0
0 0 0 0
0 0 0 0
2 0 0 0
15 1 0 0
27 20 15 6
65 84 105 136
134 154 156 147
190 247 255 252
254 313 291 259
245 302 268 258
192 253 259 248
116 160 159 142
0 0 0 0
0 0 0 0
0 0 0 0
0 0 0 0
0 0 0 0
0 0 0 0
0 0 0 0
6 0 0 0
17 5 0 0
32 28 28 28
78 104 126 129
141 179 185 194
213 273 257 254
252 306 288 259
222 291 259 251
168 249 249 241
63 130 131 129
0 0 0 0
0 0 0 0
0 0 0 0
0 0 0 0
0 0 0 0
0 0 0 0
0 0 0 0
8 0 0 0
18 5 0 0
41 45 44 52
101 131 139 130
159 201 220 242
246 297 273 255
258 315 288 256
216 285 258 255
148 212 237 252
15 70 118 131
0 0 0 0
0 0 0 0
0 0 0 0
0 0 0 0
0 0 0 0
0 0 0 0
1 0 0 0
13 1 0 0
27 21 13 5
69 89 117 124
131 157 166 160
192 256 242 251
253 317 297 264
243 300 268 256
188 251 242 252
110 184 173 158
0 0 0 0
0 0 0 0
0 0 0 0
0 0 0 0
0 0 0 0
0 0 0 0
0 0 0 0
2 0 0 0
16 1 0 0
28 23 14 7
79 99 129 123
132 183 192 196
205 261 261 248
252 303 283 253
233 307 267 255
179 252 244 242
84 138 133 126
0 0 0 0
0 0 0 0
0 0 0 0
0 0 0 0
0 0 0 0
0 0 0 0
0 0 0 0
2 0 0 0
18 2 0 0
35 34 34 37
90 121 131 131
144 181 189 200
229 292 259 252
255 308 280 256
219 287 259 257
158 229 250 250
44 111 132 128
0 0 0 0
0 0 0 0
0 0 0 0
0 0 0 0
0 0 0 0
0 0 0 0
1 0 0 0
11 0 0 0
15 3 0 0
43 44 44 50
113 129 138 127
177 219 249 247
250 306 293 267
251 308 288 256
197 257 248 253
135 190 201 210
0 31 51 74
0 0 0 0
0 0 0 0
0 0 0 0
0 0 0 0
0 0 0 0
0 0 0 0
1 0 0 0
7 0 0 0
22 9 4 0
45 49 54 62
115 127 138 136
172 214 243 233
250 305 291 260
251 327 308 264
200 269 252 246
135 187 198 208
0 30 46 66
0 0 0 0
0 0 0 0
0 0 0 0
0 0 0 0
0 0 0 0
0 0 0 0
3 0 0 0
11 0 0 0
25 14 5 1
63 75 95 123
121 147 138 133
178 243 239 238
255 317 301 265
249 310 283 254
195 256 247 255
125 172 173 165
0 1 0 0
0 0 0 0
0 0 0 0
0 0 0 0
0 0 0 0
0 0 0 0
0 0 0 0
1 0 0 0
13 1 0 0
26 16 11 5
62 75 93 120
126 162 153 142
190 253 252 250
253 333 315 281
239 332 310 261
193 261 261 238
120 167 164 147
0 0 0 0
0 0 0 0
0 0 0 0
0 0 0 0
0 0 0 0
0 0 0 0
0 0 0 0
5 0 0 0
13 1 0 0
29 22 21 18
76 102 133 127
139 172 182 191
207 264 256 245
251 305 280 248
224 293 259 256
163 244 240 238
71 129 142 129
0 0 0 0
0 0 0 0
0 0 0 0
0 0 0 0
0 0 0 0
0 0 0 0
1 0 0 0
7 0 0 0
22 9 2 0
35 35 33 33
95 126 131 131
155 197 213 240
236 311 287 263
253 313 287 251
221 294 261 245
159 233 252 232
37 105 135 132
0 0 0 0
0 0 0 0
0 0 0 0
0 0 0 0
0 0 0 0
0 0 0 0
1 0 0 0
11 0 0 0
17 8 0 0
50 58 66 89
115 130 130 129
181 230 252 252
253 312 300 261
252 328 308 255
195 264 259 256
128 180 187 190
0 22 34 40
0 0 0 0
0 0 0 0
0 0 0 0
0 0 0 0
0 0 0 0
0 0 0 0
3 0 0 0
8 0 0 0
20 5 1 0
52 58 67 87
121 136 134 136
181 229 252 253
253 310 292 258
251 312 285 247
194 260 252 254
125 193 203 204
0 30 44 61
0 0 0 0
0 0 0 0
0 0 0 0
0 0 0 0
0 0 0 0
0 0 0 0
2 0 0 0
7 0 0 0
22 14 7 1
54 65 77 99
124 133 132 134
176 228 251 253
252 315 301 268
247 324 304 258
191 263 252 239
123 177 175 171
0 3 3 0
0 0 0 0
0 0 0 0
0 0 0 0
0 0 0 0
0 0 0 0
0 0 0 0
2 0 0 0
11 0 0 0
17 7 0 0
51 56 71 90
119 133 128 127
180 229 246 255
254 308 286 256
253 302 274 258
198 258 259 258
136 187 200 211
0 25 43 59
0 0 0 0
0 0 0 0
0 0 0 0
0 0 0 0
0 0 0 0
0 0 0 0
3 0 0 0
13 0 0 0
25 20 12 4
61 74 95 125
127 145 132 151
199 254 254 250
255 317 292 263
242 295 266 256
194 254 252 252
118 160 151 134
0 0 0 0
0 0 0 0
0 0 0 0
0 0 0 0
0 0 0 0
0 0 0 0
0 0 0 0
1 0 0 0
16 1 0 0
32 24 23 19
80 106 130 130
142 178 192 209
212 268 266 257
251 305 286 253
227 300 264 251
170 247 249 243
66 129 137 124
0 0 0 0
0 0 0 0
0 0 0 0
0 0 0 0
0 0 0 0
0 0 0 0
0 0 0 0
6 0 0 0
19 7 0 0
37 36 34 35
92 125 123 127
150 189 200 212
230 298 262 259
252 313 281 259
215 284 261 245
151 218 244 243
32 93 128 134
0 0 0 0
0 0 0 0
0 0 0 0
0 0 0 0
0 0 0 0
0 0 0 0
0 0 0 0
10 0 0 0
22 14 4 0
49 56 65 82
120 134 131 131
180 234 249 230
252 335 319 287
248 333 319 275
193 261 261 255
128 195 212 217
0 21 37 50
0 0 0 0
0 0 0 0
0 0 0 0
0 0 0 0
0 0 0 0
0 0 0 0
1 0 0 0
13 2 0 0
27 20 15 9
65 83 106 130
132 157 158 152
197 254 245 253
253 313 291 260
239 318 285 256
181 250 259 247
102 165 160 142
0 0 0 0
0 0 0 0
0 0 0 0
0 0 0 0
0 0 0 0
0 0 0 0
0 0 0 0
6 0 0 0
13 0 0 0
32 23 13 9
75 99 123 120
131 185 192 206
204 267 261 255
254 306 288 253
231 303 261 262
177 250 260 245
77 135 149 128
0 0 0 0
0 0 0 0
0 0 0 0
0 0 0 0
0 0 0 0
0 0 0 0
0 0 0 0
2 0 0 0
18 5 0 0
33 32 27 29
92 127 125 130
145 186 190 203
224 288 261 264
252 309 282 250
216 281 255 250
155 221 248 240
37 99 128 123
0 0 0 0
0 0 0 0
0 0 0 0
0 0 0 0
0 0 0 0
0 0 0 0
1 0 0 0
6 0 0 0
15 4 0 0
45 45 55 67
108 131 128 136
169 215 238 228
251 327 316 279
252 320 310 266
205 274 257 248
128 205 225 250
1 49 87 124
0 0 0 0
0 0 0 0
0 0 0 0
0 0 0 0
0 0 0 0
0 0 0 0
3 0 0 0
11 0 0 0
18 5 1 0
50 59 69 92
116 131 131 133
178 221 247 242
254 312 304 269
254 307 289 257
199 260 247 256
126 197 203 214
0 26 38 53
0 0 0 0
0 0 0 0
0 0 0 0
0 0 0 0
0 0 0 0
0 0 0 0
1 0 0 0
16 1 0 0
23 14 3 0
57 69 82 111
128 143 135 142
195 245 258 249
257 307 293 255
247 296 265 251
195 250 256 234
118 173 172 154
0 1 0 0
0 0 0 0
0 0 0 0
0 0 0 0
0 0 0 0
0 0 0 0
0 0 0 0
1 0 0 0
14 1 0 0
25 20 16 9
61 78 97 125
127 166 163 159
187 251 253 256
254 314 294 263
243 298 266 258
192 250 257 240
112 150 143 130
0 0 0 0
0 0 0 0
0 0 0 0
0 0 0 0
0 0 0 0
0 0 0 0
0 0 0 0
5 0 0 0
16 4 0 0
26 22 11 8
74 99 128 124
131 182 190 198
197 256 259 245
250 310 290 255
233 311 272 259
176 251 252 240
89 155 143 127
0 0 0 0
0 0 0 0
0 0 0 0
0 0 0 0
0 0 0 0
0 0 0 0
0 0 0 0
4 0 0 0
17 4 0 0
27 27 21 20
88 121 129 132
151 195 209 231
222 289 259 260
254 312 291 254
221 288 257 256
162 235 253 225
53 125 142 133
0 0 0 0
0 0 0 0
0 0 0 0
0 0 0 0
0 0 0 0
0 0 0 0
0 0 0 0
8 0 0 0
22 12 2 0
50 57 70 89
111 128 134 138
174 219 245 241
249 326 311 279
251 325 306 266
212 282 255 251
131 197 210 222
3 39 66 102
0 0 0 0
0 0 0 0
0 0 0 0
0 0 0 0
0 0 0 0
0 0 0 0
3 0 0 0
13 1 0 0
24 12 3 0
56 69 81 111
126 145 134 142
193 249 243 246
256 321 301 262
247 323 298 252
186 258 250 254
121 174 177 165
0 1 0 0
0 0 0 0
0 0 0 0
0 0 0 0
0 0 0 0
0 0 0 0
0 0 0 0
1 0 0 0
13 0 0 0
24 19 15 11
71 86 113 128
134 160 157 150
209 256 260 249
256 308 281 257
239 316 276 245
185 254 257 242
96 154 146 135
0 0 0 0
0 0 0 0
0 0 0 0
0 0 0 0
0 0 0 0
0 0 0 0
0 0 0 0
6 0 0 0
11 1 0 0
31 23 21 14
85 114 138 126
142 180 187 196
215 275 260 257
253 298 277 259
215 283 261 253
161 235 257 246
55 128 131 131
0 0 0 0
0 0 0 0
0 0 0 0
0 0 0 0
0 0 0 0
0 0 0 0
1 0 0 0
5 0 0 0
20 9 2 0
46 48 54 65
108 131 128 138
169 216 239 237
251 327 316 280
254 319 305 264
206 278 258 243
134 195 218 231
3 42 74 118
0 0 0 0
0 0 0 0
0 0 0 0
0 0 0 0
0 0 0 0
0 0 0 0
1 0 0 0
5 0 0 0
22 9 3 0
43 47 49 58
113 129 133 127
174 218 245 239
251 326 314 276
252 319 309 261
198 260 258 254
136 190 205 213
3 33 57 81
0 0 0 0
0 0 0 0
0 0 0 0
0 0 0 0
0 0 0 0
0 0 0 0
1 0 0 0
8 0 0 0
21 9 4 0
43 45 48 58
112 129 136 136
170 210 233 250
251 323 308 272
252 335 317 272
201 275 258 249
135 195 220 239
1 32 61 90
0 0 0 0
0 0 0 0
0 0 0 0
0 0 0 0
0 0 0 0
0 0 0 0
2 0 0 0
9 1 0 0
21 13 3 0
55 64 79 105
118 145 130 132
179 235 254 240
251 314 302 266
245 321 298 249
188 257 257 259
123 176 180 177
0 9 13 7
0 0 0 0
0 0 0 0
0 0 0 0
0 0 0 0
0 0 0 0
0 0 0 0
0 0 0 0
8 0 0 0
21 11 2 0
53 58 67 83
121 131 138 136
183 227 246 251
256 313 299 270
251 327 307 265
199 268 252 247
128 199 211 225
0 24 40 53
0 0 0 0
0 0 0 0
0 0 0 0
0 0 0 0
0 0 0 0
0 0 0 0
5 0 0 0
11 0 0 0
24 13 3 0
60 70 84 114
130 148 137 137
196 252 259 246
253 310 292 262
247 304 272 258
191 257 259 252
115 173 169 150
0 0 0 0
0 0 0 0
0 0 0 0
0 0 0 0
0 0 0 0
0 0 0 0
0 0 0 0
1 0 0 0
9 0 0 0
25 15 10 2
65 84 107 118
135 155 154 151
191 251 254 249
252 314 290 259
240 318 285 253
191 258 246 252
113 160 151 134
0 0 0 0
0 0 0 0
0 0 0 0
0 0 0 0
0 0 0 0
0 0 0 0
0 0 0 0
5 0 0 0
16 2 0 0
26 25 13 8
76 102 128 122
137 172 179 182
212 263 256 246
252 303 279 254
233 303 265 252
172 250 259 241
78 133 153 137
0 0 0 0
0 0 0 0
0 0 0 0
0 0 0 0
0 0 0 0
0 0 0 0
0 0 0 0
6 0 0 0
20 8 1 0
34 32 28 30
97 128 130 128
156 195 213 238
230 302 268 267
254 315 288 257
220 290 259 251
155 227 250 251
38 106 138 129
0 0 0 0
0 0 0 0
0 0 0 0
0 0 0 0
0 0 0 0
0 0 0 0
1 0 0 0
4 0 0 0
20 11 4 0
47 52 62 77
114 131 135 135
180 227 250 251
252 333 314 285
251 334 319 277
198 269 262 241
131 182 196 204
0 13 26 26
0 0 0 0
0 0 0 0
0 0 0 0
0 0 0 0
0 0 0 0
0 0 0 0
5 0 0 0
16 2 0 0
30 24 16 16
71 92 115 126
134 168 166 163
204 258 257 256
252 329 310 265
230 317 284 245
179 251 259 244
90 152 140 131
0 0 0 0
0 0 0 0
0 0 0 0
0 0 0 0
0 0 0 0
0 0 0 0
0 0 0 0
6 0 0 0
20 5 0 0
35 32 32 35
84 113 130 124
150 192 208 224
228 294 264 251
254 314 294 261
225 302 266 247
166 250 245 254
59 131 137 125
0 0 0 0
0 0 0 0
0 0 0 0
0 0 0 0
0 0 0 0
0 0 0 0
1 0 0 0
5 0 0 0
20 10 0 0
47 53 61 77
106 127 130 134
165 204 228 246
249 322 304 266
249 343 329 287
197 274 260 248
135 198 220 238
3 36 65 99
0 0 0 0
0 0 0 0
0 0 0 0
0 0 0 0
0 0 0 0
0 0 0 0
1 0 0 0
8 0 0 0
20 11 2 0
52 59 73 96
119 132 131 133
183 231 248 254
254 310 290 263
255 310 287 248
201 260 252 247
129 189 196 193
0 28 43 54
0 0 0 0
0 0 0 0
0 0 0 0
0 0 0 0
0 0 0 0
0 0 0 0
3 0 0 0
11 0 0 0
26 19 12 6
67 85 111 119
136 152 151 136
198 257 246 255
256 311 288 259
238 317 277 251
190 254 253 249
106 172 159 133
0 0 0 0
0 0 0 0
0 0 0 0
0 0 0 0
0 0 0 0
0 0 0 0
0 0 0 0
2 0 0 0
14 3 0 0
34 30 27 29
84 117 124 126
139 183 187 196
218 282 251 255
251 308 282 256
220 288 253 257
167 243 238 230
54 123 134 129
0 0 0 0
0 0 0 0
0 0 0 0
0 0 0 0
0 0 0 0
0 0 0 0
0 0 0 0
5 0 0 0
19 5 0 0
39 39 39 38
103 131 133 128
161 202 221 243
248 294 272 265
256 306 278 248
208 269 259 256
139 197 216 241
3 43 70 112
0 0 0 0
0 0 0 0
0 0 0 0
0 0 0 0
0 0 0 0
0 0 0 0
0 0 0 0
6 0 0 0
22 10 2 0
50 51 61 72
118 130 143 126
179 227 247 247
252 311 292 260
251 330 308 266
198 267 258 240
138 187 205 217
0 24 38 54
0 0 0 0
0 0 0 0
0 0 0 0
0 0 0 0
0 0 0 0
0 0 0 0
3 0 0 0
15 0 0 0
23 18 8 4
60 76 92 124
127 143 136 141
182 239 260 246
253 318 310 275
248 301 274 257
197 258 251 255
128 173 174 164
0 1 0 0
0 0 0 0
0 0 0 0
0 0 0 0
0 0 0 0
0 0 0 0
0 0 0 0
3 0 0 0
9 0 0 0
23 11 4 0
59 68 85 115
126 131 146 132
184 231 251 232
256 314 299 270
248 326 303 262
191 260 256 254
119 184 185 179
0 7 6 0
0 0 0 0
0 0 0 0
0 0 0 0
0 0 0 0
0 0 0 0
0 0 0 0
1 0 0 0
12 0 0 0
21 12 4 1
56 68 82 113
125 130 143 134
185 232 251 237
256 306 291 261
248 304 270 254
194 261 246 247
128 181 192 197
0 7 13 12
0 0 0 0
0 0 0 0
0 0 0 0
0 0 0 0
0 0 0 0
0 0 0 0
1 0 0 0
13 2 0 0
28 24 21 21
73 97 124 118
130 166 165 161
211 263 254 246
253 312 292 253
238 315 275 245
179 256 254 237
85 140 136 130
0 0 0 0
0 0 0 0
0 0 0 0
0 0 0 0
0 0 0 0
0 0 0 0
0 0 0 0
4 0 0 0
18 5 0 0
32 27 24 25
90 121 127 124
144 179 187 193
224 284 257 260
253 299 272 261
220 286 252 257
161 233 249 226
40 109 129 134
0 0 0 0
0 0 0 0
0 0 0 0
0 0 0 0
0 0 0 0
0 0 0 0
0 0 0 0
8 0 0 0
22 9 2 0
49 58 62 81
108 132 132 135
168 208 231 245
250 303 281 252
256 313 288 254
206 266 258 257
128 197 214 229
0 41 70 109
0 0 0 0
0 0 0 0
0 0 0 0
0 0 0 0
0 0 0 0
0 0 0 0
3 0 0 0
8 0 0 0
19 7 0 0
50 57 65 85
114 127 135 126
178 224 249 248
255 311 301 268
256 311 293 253
198 259 253 258
135 187 203 211
0 28 44 61
0 0 0 0
0 0 0 0
0 0 0 0
0 0 0 0
0 0 0 0
0 0 0 0
4 0 0 0
8 0 0 0
16 5 0 0
50 55 65 86
120 132 137 131
182 230 255 231
254 314 298 268
252 310 291 256
199 260 252 249
132 176 182 179
0 18 26 29
0 0 0 0
0 0 0 0
0 0 0 0
0 0 0 0
0 0 0 0
0 0 0 0
2 0 0 0
13 2 0 0
25 19 15 8
60 75 97 123
130 144 138 138
191 245 256 247
254 303 285 255
242 293 262 254
186 254 242 252
117 172 165 150
0 0 0 0
0 0 0 0
0 0 0 0
0 0 0 0
0 0 0 0
0 0 0 0
0 0 0 0
2 0 0 0
9 0 0 0
20 8 1 0
50 58 65 83
119 143 132 130
171 222 247 241
249 336 331 313
249 336 329 297
186 258 257 258
128 174 183 176
0 9 9 3
0 0 0 0
0 0 0 0
0 0 0 0
0 0 0 0
0 0 0 0
0 0 0 0
0 0 0 0
14 0 0 0
20 13 4 0
46 56 64 82
120 132 131 127
182 235 250 229
254 315 302 265
254 309 286 256
199 262 255 236
131 202 219 232
0 33 56 86
0 0 0 0
0 0 0 0
0 0 0 0
0 0 0 0
0 0 0 0
0 0 0 0
1 0 0 0
14 0 0 0
29 22 18 16
74 101 130 129
131 184 194 202
208 269 260 253
251 328 301 265
231 312 274 260
177 256 242 254
79 141 127 129
0 0 0 0
0 0 0 0
0 0 0 0
0 0 0 0
0 0 0 0
0 0 0 0
0 0 0 0
8 0 0 0
11 1 0 0
33 28 25 19
88 115 128 135
146 179 185 191
227 285 257 259
254 302 270 261
213 283 251 247
157 228 251 227
39 109 132 131
0 0 0 0
0 0 0 0
0 0 0 0
0 0 0 0
0 0 0 0
0 0 0 0
2 0 0 0
8 0 0 0
17 4 0 0
44 53 58 74
110 133 132 138
174 216 239 238
250 331 318 288
251 319 305 269
196 260 257 260
132 185 198 209
1 31 49 74
0 0 0 0
0 0 0 0
0 0 0 0
0 0 0 0
0 0 0 0
0 0 0 0
1 0 0 0
8 0 0 0
14 5 0 0
46 52 57 74
112 132 134 137
169 210 225 247
253 302 281 253
249 326 297 261
198 266 262 256
132 188 201 205
1 31 51 74
0 0 0 0
0 0 0 0
0 0 0 0
0 0 0 0
0 0 0 0
0 0 0 0
2 0 0 0
11 0 0 0
22 13 5 1
53 62 73 93
120 147 135 135
173 226 248 248
252 312 299 262
245 319 292 257
186 257 249 249
127 182 187 187
0 11 21 18
0 0 0 0
0 0 0 0
0 0 0 0
0 0 0 0
0 0 0 0
0 0 0 0
1 0 0 0
17 1 0 0
25 15 8 1
62 77 95 124
127 156 150 138
194 255 242 246
253 315 294 258
245 299 268 258
186 252 247 252
110 150 137 135
0 0 0 0
0 0 0 0
0 0 0 0
0 0 0 0
0 0 0 0
0 0 0 0
0 0 0 0
4 0 0 0
15 4 0 0
34 28 25 23
79 110 133 122
144 182 190 200
213 274 259 255
252 307 289 253
224 293 255 256
166 240 256 254
62 130 138 125
0 0 0 0
0 0 0 0
0 0 0 0
0 0 0 0
0 0 0 0
0 0 0 0
0 0 0 0
7 0 0 0
18 7 1 0
41 44 47 58
96 122 138 130
153 193 205 230
238 311 279 252
253 317 292 256
213 281 260 247
152 219 246 248
19 76 114 135
0 0 0 0
0 0 0 0
0 0 0 0
0 0 0 0
0 0 0 0
0 0 0 0
1 0 0 0
8 0 0 0
20 9 1 0
48 52 60 80
113 129 132 134
177 219 244 246
253 331 321 296
252 319 310 270
198 260 262 259
133 183 200 216
1 31 55 80
0 0 0 0
0 0 0 0
0 0 0 0
0 0 0 0
0 0 0 0
0 0 0 0
0 0 0 0
8 0 0 0
21 10 1 0
55 62 73 97
120 140 138 138
176 227 250 254
251 312 295 267
254 306 286 249
197 261 256 237
126 197 206 211
0 25 39 52
0 0 0 0
0 0 0 0
0 0 0 0
0 0 0 0
0 0 0 0
0 0 0 0
1 0 0 0
14 2 0 0
19 8 0 0
56 65 77 102
127 135 149 135
180 227 253 252
252 313 298 260
244 301 269 257
192 255 259 247
128 173 183 183
0 2 4 0
0 0 0 0
0 0 0 0
0 0 0 0
0 0 0 0
0 0 0 0
0 0 0 0
3 0 0 0
13 2 0 0
21 9 1 0
55 64 76 103
119 145 138 130
179 234 255 236
254 309 294 255
248 321 299 255
189 261 258 232
126 176 181 168
0 7 8 0
0 0 0 0
0 0 0 0
0 0 0 0
0 0 0 0
0 0 0 0
0 0 0 0
0 0 0 0
3 0 0 0
20 10 1 0
52 58 73 94
112 135 130 144
177 225 246 249
251 307 289 256
251 328 303 258
198 264 252 256
135 185 198 208
0 30 43 63
0 0 0 0
0 0 0 0
0 0 0 0
0 0 0 0
0 0 0 0
0 0 0 0
2 0 0 0
12 1 0 0
25 19 9 4
53 68 82 113
126 133 149 134
187 240 255 254
256 316 299 266
245 323 301 256
185 256 257 236
120 178 181 173
0 1 0 0
0 0 0 0
0 0 0 0
0 0 0 0
0 0 0 0
0 0 0 0
0 0 0 0
4 0 0 0
14 1 0 0
25 21 17 9
61 79 97 124
127 163 159 152
182 248 259 243
252 332 324 287
244 312 291 250
188 252 261 252
121 166 163 147
0 0 0 0
0 0 0 0
0 0 0 0
0 0 0 0
0 0 0 0
0 0 0 0
0 0 0 0
4 0 0 0
7 0 0 0
25 15 8 0
60 75 95 121
128 140 133 132
194 247 254 242
255 315 301 266
245 322 294 249
184 255 257 253
118 174 173 164
0 0 0 0
0 0 0 0
0 0 0 0
0 0 0 0
0 0 0 0
0 0 0 0
0 0 0 0
2 0 0 0
13 1 0 0
25 20 16 12
70 87 118 127
133 159 161 158
203 251 260 256
254 309 291 256
237 315 279 255
181 255 249 253
90 157 137 130
0 0 0 0
0 0 0 0
0 0 0 0
0 0 0 0
0 0 0 0
0 0 0 0
0 0 0 0
6 0 0 0
14 1 0 0
34 29 29 29
84 111 136 123
146 191 206 224
221 287 256 254
254 310 288 256
222 297 258 246
172 247 245 241
60 131 144 131
0 0 0 0
0 0 0 0
0 0 0 0
0 0 0 0
0 0 0 0
0 0 0 0
1 0 0 0
6 0 0 0
19 9 2 0
42 44 51 64
102 132 130 134
165 213 239 231
244 320 305 267
254 319 302 259
206 275 256 249
130 209 229 249
4 56 99 127
0 0 0 0
0 0 0 0
0 0 0 0
0 0 0 0
0 0 0 0
0 0 0 0
2 0 0 0
6 0 0 0
18 8 1 0
50 53 61 81
106 129 131 132
168 206 226 250
248 316 299 264
249 334 315 273
198 270 260 250
132 192 204 216
1 36 58 86
0 0 0 0
0 0 0 0
0 0 0 0
0 0 0 0
0 0 0 0
0 0 0 0
2 0 0 0
8 0 0 0
21 9 4 0
47 46 51 64
111 135 137 138
170 213 237 258
254 305 289 261
251 308 286 249
198 260 254 258
134 192 208 225
3 33 57 87
0 0 0 0
0 0 0 0
0 0 0 0
0 0 0 0
0 0 0 0
0 0 0 0
3 0 0 0
16 0 0 0
26 11 5 0
63 73 91 120
129 146 135 151
195 248 251 242
256 314 300 262
245 316 288 257
184 258 257 255
118 186 185 184
0 12 12 7
0 0 0 0
0 0 0 0
0 0 0 0
0 0 0 0
0 0 0 0
0 0 0 0
5 0 0 0
10 1 0 0
27 23 21 20
72 96 124 118
131 184 191 198
203 263 260 251
250 302 282 252
227 294 254 256
177 249 262 246
75 132 145 128
0 0 0 0
0 0 0 0
0 0 0 0
0 0 0 0
0 0 0 0
0 0 0 0
0 0 0 0
5 0 0 0
20 4 0 0
40 41 41 46
87 121 129 125
150 193 205 226
233 303 271 262
253 310 280 257
222 295 260 245
164 241 262 241
50 119 138 127
0 0 0 0
0 0 0 0
0 0 0 0
0 0 0 0
0 0 0 0
0 0 0 0
0 0 0 0
7 0 0 0
21 11 1 0
50 59 70 95
120 130 131 130
177 221 246 239
251 309 300 265
251 328 309 262
195 266 255 254
125 197 207 210
0 28 44 61
0 0 0 0
0 0 0 0
0 0 0 0
0 0 0 0
0 0 0 0
0 0 0 0
3 0 0 0
8 0 0 0
23 11 6 0
55 68 83 114
123 129 140 129
179 221 245 252
255 310 293 262
246 323 298 257
190 261 251 238
127 179 185 182
0 5 10 4
0 0 0 0
0 0 0 0
0 0 0 0
0 0 0 0
0 0 0 0
0 0 0 0
3 0 0 0
16 1 0 0
28 22 18 16
76 96 128 122
132 180 189 195
197 258 260 249
252 310 294 258
237 315 283 253
179 255 244 250
92 160 140 128
0 0 0 0
0 0 0 0
0 0 0 0
0 0 0 0
0 0 0 0
0 0 0 0
0 0 0 0
2 0 0 0
16 3 0 0
27 22 14 8
78 101 133 130
142 176 190 200
215 270 254 253
256 306 288 256
230 303 266 249
177 249 256 249
70 129 133 129
0 0 0 0
0 0 0 0
0 0 0 0
0 0 0 0
0 0 0 0
0 0 0 0
0 0 0 0
10 0 0 0
20 8 2 0
44 49 52 63
103 133 128 138
162 209 221 245
248 299 276 265
253 309 277 253
210 271 249 255
138 196 210 225
5 48 79 118
0 0 0 0
0 0 0 0
0 0 0 0
0 0 0 0
0 0 0 0
0 0 0 0
0 0 0 0
11 0 0 0
17 8 0 0
45 51 54 65
115 130 132 139
174 214 242 234
252 305 294 261
255 309 288 251
202 263 250 238
131 192 204 213
0 31 51 73
0 0 0 0
0 0 0 0
0 0 0 0
0 0 0 0
0 0 0 0
0 0 0 0
1 0 0 0
13 1 0 0
24 20 10 6
60 75 91 123
128 161 155 147
183 247 258 246
250 313 299 266
242 302 272 253
187 258 241 249
119 174 167 152
0 0 0 0
0 0 0 0
0 0 0 0
0 0 0 0
0 0 0 0
0 0 0 0
0 0 0 0
2 0 0 0
15 3 0 0
27 15 9 1
63 74 93 116
128 163 156 145
188 252 247 244
252 334 323 286
246 314 296 253
192 256 261 232
119 172 166 150
0 0 0 0
0 0 0 0
0 0 0 0
0 0 0 0
0 0 0 0
0 0 0 0
0 0 0 0
5 0 0 0
13 0 0 0
23 15 8 1
59 71 89 115
129 159 153 142
190 250 254 252
255 311 295 260
243 302 266 256
193 252 259 248
114 156 153 131
0 0 0 0
0 0 0 0
0 0 0 0
0 0 0 0
0 0 0 0
0 0 0 0
0 0 0 0
1 0 0 0
14 2 0 0
30 24 24 21
80 105 127 135
142 176 183 192
212 270 251 246
254 297 273 268
221 288 255 257
163 236 261 246
67 134 136 131
0 0 0 0
0 0 0 0
0 0 0 0
0 0 0 0
0 0 0 0
0 0 0 0
0 0 0 0
6 0 0 0
16 1 0 0
38 33 33 28
98 129 133 128
150 191 207 213
233 307 279 262
256 309 283 257
213 282 259 246
156 223 253 252
33 96 136 125
0 0 0 0
0 0 0 0
0 0 0 0
0 0 0 0
0 0 0 0
0 0 0 0
2 0 0 0
9 0 0 0
16 3 0 0
45 49 56 69
105 130 128 134
172 221 249 242
253 331 323 290
251 319 309 268
201 265 256 259
132 190 207 225
1 27 51 77
0 0 0 0
0 0 0 0
0 0 0 0
0 0 0 0
0 0 0 0
0 0 0 0
1 0 0 0
14 1 0 0
17 7 1 0
51 58 66 86
115 128 138 129
182 228 249 251
253 312 293 261
251 328 308 263
196 265 260 256
128 197 207 209
0 34 53 73
0 0 0 0
0 0 0 0
0 0 0 0
0 0 0 0
0 0 0 0
0 0 0 0
3 0 0 0
9 0 0 0
19 6 0 0
50 57 66 87
115 127 134 136
179 227 245 246
251 310 291 257
249 327 301 254
193 260 253 247
128 198 210 221
0 25 43 62
0 0 0 0
0 0 0 0
0 0 0 0
0 0 0 0
0 0 0 0
0 0 0 0
3 0 0 0
9 0 0 0
21 12 4 0
56 69 83 116
123 132 139 133
180 227 250 252
254 312 297 266
246 324 298 261
186 259 252 261
118 187 193 190
0 11 18 19
0 0 0 0
0 0 0 0
0 0 0 0
0 0 0 0
0 0 0 0
0 0 0 0
2 0 0 0
15 4 0 0
28 23 14 9
77 102 129 129
141 173 187 195
206 259 260 253
254 299 275 261
227 293 256 249
169 245 246 234
68 132 132 126
0 0 0 0
0 0 0 0
0 0 0 0
0 0 0 0
0 0 0 0
0 0 0 0
0 0 0 0
2 0 0 0
17 5 0 0
33 32 28 30
91 122 131 127
152 194 208 226
237 309 279 248
255 316 292 253
219 289 257 256
154 222 243 245
35 97 133 125
0 0 0 0
0 0 0 0
0 0 0 0
0 0 0 0
0 0 0 0
0 0 0 0
4 0 0 0
7 0 0 0
21 11 3 0
53 62 73 92
120 132 132 132
182 231 248 253
253 333 318 289
255 320 309 266
203 267 259 240
132 175 185 186
0 14 26 26
0 0 0 0
0 0 0 0
0 0 0 0
0 0 0 0
0 0 0 0
0 0 0 0
1 0 0 0
12 1 0 0
24 17 9 4
61 75 92 124
127 145 134 155
191 250 247 245
255 313 295 255
247 305 274 264
201 259 245 254
123 168 161 144
0 0 0 0
0 0 0 0
0 0 0 0
0 0 0 0
0 0 0 0
0 0 0 0
0 0 0 0
0 0 0 0
11 0 0 0
25 20 14 7
69 87 114 120
131 156 159 155
199 258 250 257
254 310 286 251
237 316 280 249
187 257 249 253
109 176 166 150
0 0 0 0
0 0 0 0
0 0 0 0
0 0 0 0
0 0 0 0
0 0 0 0
0 0 0 0
2 0 0 0
16 3 0 0
35 31 31 34
89 116 128 132
144 184 195 207
215 279 256 256
251 309 284 252
220 293 259 257
166 244 241 236
57 129 141 130
0 0 0 0
0 0 0 0
0 0 0 0
0 0 0 0
0 0 0 0
0 0 0 0
4 0 0 0
12 1 0 0
19 11 5 0
44 50 57 71
111 126 132 131
170 210 234 250
252 322 308 269
253 310 293 256
202 264 256 255
135 183 192 202
0 19 32 37
0 0 0 0
0 0 0 0
0 0 0 0
0 0 0 0
0 0 0 0
0 0 0 0
2 0 0 0
9 0 0 0
21 10 3 0
55 66 76 103
123 131 142 132
179 223 247 252
254 305 285 258
244 316 285 259
183 259 253 254
126 178 182 181
0 3 5 0
0 0 0 0
0 0 0 0
0 0 0 0
0 0 0 0
0 0 0 0
0 0 0 0
0 0 0 0
10 0 0 0
24 14 5 0
53 61 70 90
119 143 134 136
171 220 242 250
254 309 290 257
247 322 294 249
194 261 257 254
128 174 178 171
0 12 15 8
0 0 0 0
0 0 0 0
0 0 0 0
0 0 0 0
0 0 0 0
0 0 0 0
3 0 0 0
8 0 0 0
22 11 3 0
52 58 70 87
120 144 136 137
177 229 248 258
252 312 295 260
249 331 310 262
194 265 263 242
125 171 175 171
0 5 7 0
0 0 0 0
0 0 0 0
0 0 0 0
0 0 0 0
0 0 0 0
0 0 0 0
0 0 0 0
13 0 0 0
16 5 0 0
48 52 61 77
108 132 133 127
175 219 250 248
251 327 317 285
251 317 305 268
199 263 258 243
133 195 216 227
1 29 57 79
0 0 0 0
0 0 0 0
0 0 0 0
0 0 0 0
0 0 0 0
0 0 0 0
1 0 0 0
13 0 0 0
25 15 10 2
67 80 104 130
131 145 140 130
188 247 248 250
253 317 306 274
247 302 274 253
192 253 255 246
118 162 154 138
0 0 0 0
0 0 0 0
0 0 0 0
0 0 0 0
0 0 0 0
0 0 0 0
0 0 0 0
3 0 0 0
10 0 0 0
29 24 21 19
77 106 131 131
137 171 180 186
210 258 260 257
253 294 270 260
223 289 252 248
169 245 242 253
67 129 128 132
0 0 0 0
0 0 0 0
0 0 0 0
0 0 0 0
0 0 0 0
0 0 0 0
0 0 0 0
12 0 0 0
13 1 0 0
38 36 35 37
95 124 132 121
156 195 209 230
243 290 266 255
