## File generated by myo_cap software 
## Available from github.com/ddantas/myo_cap 
## Timestamp: 2018-12-17_16-23-03 
##  
## EMG capture settings 
##  
# sampleRate: 2000 
# channelsPerBoard: 4 
# nBoards: 1 
# bitsPerSample: 12 
# %d;%d;%d;%d
186;267;374;440
194;282;386;424
198;288;386;424
194;282;378;432
182;264;358;416
143;210;334;384
118;186;294;344
94;152;243;304
79;122;210;258
42;62;118;162
14;11;26;48
0;0;0;0
0;0;0;0
0;0;0;0
0;0;0;0
0;0;0;0
0;0;0;0
0;0;0;0
0;0;0;0
0;0;0;0
0;0;0;0
0;0;0;0
6;0;0;0
14;0;0;0
26;11;0;0
38;34;14;1
58;67;70;72
74;98;128;131
106;154;206;240
130;170;270;315
138;187;314;363
142;202;330;384
150;211;346;403
182;259;366;427
190;274;378;440
194;280;378;441
190;280;378;440
186;266;366;424
162;234;354;401
130;184;302;352
102;160;258;304
78;128;202;259
54;79;138;171
26;32;50;73
0;0;0;0
0;0;0;0
0;0;0;0
0;0;0;0
0;0;0;0
0;0;0;0
0;0;0;0
0;0;0;0
0;0;0;0
0;0;0;0
0;0;0;0
0;0;0;0
14;0;0;0
26;14;0;0
34;32;2;0
54;59;58;56
66;90;110;123
96;138;175;208
122;184;258;296
138;190;303;354
142;200;326;384
142;202;334;392
170;248;378;433
190;274;378;440
198;288;386;425
198;288;386;424
190;274;370;427
170;248;366;412
138;195;318;368
110;170;278;323
90;142;226;288
70;106;186;232
34;42;82;120
6;0;0;0
0;0;0;0
0;0;0;0
0;0;0;0
0;0;0;0
0;0;0;0
0;0;0;0
0;0;0;0
0;0;0;0
0;0;0;0
0;0;0;0
0;0;0;0
10;0;0;0
18;8;0;0
30;19;0;0
46;50;38;32
62;78;90;96
86;120;162;177
110;168;234;283
134;184;294;347
142;195;322;376
142;200;330;384
160;226;362;419
186;267;374;434
194;282;384;424
198;288;384;424
190;280;378;432
174;258;354;413
150;216;334;378
118;186;294;339
98;160;250;312
74;120;207;264
42;58;111;160
14;14;26;43
0;0;0;0
0;0;0;0
0;0;0;0
0;0;0;0
0;0;0;0
0;0;0;0
0;0;0;0
0;0;0;0
0;0;0;0
0;0;0;0
0;0;0;0
2;0;0;0
15;2;0;0
30;19;0;0
38;34;14;0
58;74;75;75
78;106;138;139
110;160;210;248
130;174;274;322
138;190;310;365
142;200;326;384
154;211;346;400
175;258;366;427
190;274;378;440
198;288;386;425
190;280;378;440
186;270;367;425
160;227;346;393
122;202;310;360
102;162;262;304
86;134;214;266
50;75;138;177
26;26;50;75
0;0;0;0
0;0;0;0
0;0;0;0
0;0;0;0
0;0;0;0
0;0;0;0
0;0;0;0
0;0;0;0
0;0;0;0
0;0;0;0
0;0;0;0
0;0;0;0
14;0;0;0
26;11;0;0
34;34;10;0
50;58;58;56
70;90;110;121
98;139;182;211
122;186;262;299
138;190;310;360
142;202;330;386
143;203;334;392
170;242;378;434
190;274;378;440
194;282;384;426
194;282;382;440
186;270;370;427
170;250;366;412
138;194;318;366
110;174;278;320
86;138;224;283
70;106;186;232
34;43;82;115
6;0;0;0
0;0;0;0
0;0;0;0
0;0;0;0
0;0;0;0
0;0;0;0
0;0;0;0
0;0;0;0
0;0;0;0
0;0;0;0
0;0;0;0
0;0;0;0
6;0;0;0
22;10;0;0
34;27;2;0
42;46;39;40
62;78;90;96
86;122;166;184
118;171;238;288
134;184;294;347
142;194;322;378
142;200;330;384
162;232;366;424
186;266;370;434
198;288;386;425
194;282;384;424
190;280;378;434
174;256;354;413
142;206;326;376
118;186;290;331
98;154;250;312
74;115;206;257
42;58;110;155
14;10;18;40
0;0;0;0
0;0;0;0
0;0;0;0
0;0;0;0
0;0;0;0
0;0;0;0
0;0;0;0
0;0;0;0
0;0;0;0
0;0;0;0
0;0;0;0
6;0;0;0
15;8;0;0
26;18;0;0
42;42;18;2
58;74;78;78
78;104;138;140
110;162;214;248
130;171;274;323
142;190;310;365
142;200;330;384
154;211;342;400
174;256;366;427
190;280;382;440
198;288;384;424
194;282;384;419
186;270;366;424
158;232;352;395
128;178;298;345
102;160;255;321
86;130;206;267
54;78;138;171
26;32;54;73
0;0;0;0
0;0;0;0
0;0;0;0
0;0;0;0
0;0;0;0
0;0;0;0
0;0;0;0
0;0;0;0
0;0;0;0
0;0;0;0
0;0;0;0
0;0;0;0
14;0;0;0
26;14;0;0
34;32;10;0
50;59;62;61
66;90;110;125
98;138;178;211
122;186;262;298
138;191;310;360
142;202;334;386
142;203;338;394
174;248;379;433
190;275;378;440
194;282;384;425
198;283;384;418
186;271;367;424
170;248;366;413
134;194;319;368
110;170;270;317
90;139;226;282
74;107;186;225
34;42;79;112
2;0;0;0
0;0;0;0
0;0;0;0
0;0;0;0
0;0;0;0
0;0;0;0
0;0;0;0
0;0;0;0
0;0;0;0
0;0;0;0
0;0;0;0
0;0;0;0
10;0;0;0
22;10;0;0
30;26;0;0
46;50;42;40
58;74;90;104
90;123;170;184
110;170;239;291
134;184;294;347
142;195;322;378
138;194;326;385
162;232;362;417
186;266;370;434
198;282;384;424
198;288;386;424
190;275;374;432
174;258;358;416
142;207;330;377
114;184;290;336
94;147;239;304
78;122;207;257
38;56;110;155
14;11;22;40
0;0;0;0
0;0;0;0
0;0;0;0
0;0;0;0
0;0;0;0
0;0;0;0
0;0;0;0
0;0;0;0
0;0;0;0
0;0;0;0
0;0;0;0
2;0;0;0
14;2;0;0
30;19;0;0
38;40;22;9
62;74;78;80
78;106;138;144
110;160;214;249
130;175;278;328
138;190;314;368
142;202;330;384
154;218;350;403
182;258;366;429
190;280;382;441
194;282;384;424
194;282;378;434
182;267;366;424
158;232;352;397
122;200;310;360
102;162;262;304
86;130;206;264
54;78;138;169
26;26;50;72
0;0;0;0
0;0;0;0
0;0;0;0
0;0;0;0
0;0;0;0
0;0;0;0
0;0;0;0
0;0;0;0
0;0;0;0
0;0;0;0
0;0;0;0
2;0;0;0
14;2;0;0
26;18;0;0
32;26;6;0
54;63;62;58
70;90;111;128
98;138;182;216
122;186;262;303
138;187;302;360
142;200;326;384
143;203;338;393
174;250;384;416
190;274;378;440
198;288;386;426
194;283;384;424
190;274;370;424
168;242;362;411
134;190;314;365
106;170;270;318
90;138;218;275
70;106;182;224
34;43;79;110
2;0;0;0
0;0;0;0
0;0;0;0
0;0;0;0
0;0;0;0
0;0;0;0
0;0;0;0
0;0;0;0
0;0;0;0
0;0;0;0
0;0;0;0
0;0;0;0
10;0;0;0
26;10;0;0
34;26;2;0
46;51;42;40
62;78;90;104
86;122;170;186
110;168;238;290
138;186;298;352
142;194;326;384
142;200;330;387
166;234;366;424
186;270;374;435
194;282;386;427
198;290;386;425
190;280;378;432
175;258;354;408
142;202;318;370
118;187;290;333
98;155;246;312
78;122;206;256
42;58;110;153
14;10;14;32
0;0;0;0
0;0;0;0
0;0;0;0
0;0;0;0
0;0;0;0
0;0;0;0
0;0;0;0
0;0;0;0
0;0;0;0
0;0;0;0
0;0;0;0
6;0;0;0
14;2;0;0
30;18;0;0
38;35;18;9
58;74;78;80
78;106;142;146
106;160;214;255
130;174;278;328
142;194;314;368
142;202;330;384
154;218;350;408
178;258;367;432
194;282;384;424
198;288;386;424
194;282;378;433
184;266;362;419
158;232;350;395
122;194;303;352
98;162;262;304
78;130;207;264
54;75;134;160
26;26;46;67
0;0;0;0
0;0;0;0
0;0;0;0
0;0;0;0
0;0;0;0
0;0;0;0
0;0;0;0
0;0;0;0
0;0;0;0
0;0;0;0
0;0;0;0
2;0;0;0
14;0;0;0
26;14;0;0
34;32;6;0
54;66;62;58
66;90;114;131
98;138;182;218
122;186;266;305
138;191;306;355
142;195;326;384
150;206;335;392
170;248;382;440
190;275;379;440
198;282;384;424
194;282;384;419
186;274;370;426
166;242;362;411
134;187;310;360
106;162;266;312
90;138;224;281
66;99;174;218
34;43;78;106
0;0;0;0
0;0;0;0
0;0;0;0
0;0;0;0
0;0;0;0
0;0;0;0
0;0;0;0
0;0;0;0
0;0;0;0
0;0;0;0
0;0;0;0
0;0;0;0
10;0;0;0
22;10;0;0
32;26;2;0
42;42;26;16
58;75;82;88
78;107;146;160
110;163;226;267
134;179;282;330
138;194;319;376
142;202;330;384
158;226;358;411
186;266;370;432
194;282;384;424
198;288;386;424
194;282;378;434
182;266;362;424
154;224;342;392
122;195;303;347
102;163;262;299
78;128;202;257
46;66;122;168
22;26;42;59
0;0;0;0
0;0;0;0
0;0;0;0
0;0;0;0
0;0;0;0
0;0;0;0
0;0;0;0
0;0;0;0
0;0;0;0
0;0;0;0
0;0;0;0
2;0;0;0
14;2;0;0
26;14;0;0
34;34;10;0
58;66;66;63
74;96;118;136
102;146;194;232
122;190;278;319
138;194;314;368
142;202;330;384
150;211;346;408
170;248;384;424
190;274;378;440
198;288;386;425
194;282;378;433
186;267;366;426
166;238;358;408
130;186;310;360
106;168;266;306
86;138;218;275
62;98;166;203
30;34;70;96
0;0;0;0
0;0;0;0
0;0;0;0
0;0;0;0
0;0;0;0
0;0;0;0
0;0;0;0
0;0;0;0
0;0;0;0
0;0;0;0
0;0;0;0
0;0;0;0
14;0;0;0
26;11;0;0
30;24;0;0
47;56;46;41
62;79;98;107
90;130;162;188
118;178;246;299
134;186;298;353
142;195;326;384
143;203;330;384
170;239;374;427
190;271;378;440
198;288;386;425
194;282;384;424
190;275;374;428
174;250;370;424
142;202;326;376
110;178;288;331
90;138;230;296
74;114;198;248
38;50;98;138
6;0;2;11
0;0;0;0
0;0;0;0
0;0;0;0
0;0;0;0
0;0;0;0
0;0;0;0
0;0;0;0
0;0;0;0
0;0;0;0
0;0;0;0
0;0;0;0
6;0;0;0
15;3;0;0
30;19;0;0
42;42;26;17
58;72;78;83
78;110;150;160
106;162;226;269
134;178;286;336
142;194;318;371
142;202;330;384
158;226;358;416
186;266;366;429
194;282;386;426
194;282;384;425
190;282;378;435
182;264;358;416
150;218;334;384
122;194;303;349
98;162;258;299
78;123;214;259
46;67;130;153
22;18;38;56
0;0;0;0
0;0;0;0
0;0;0;0
0;0;0;0
0;0;0;0
0;0;0;0
0;0;0;0
0;0;0;0
0;0;0;0
0;0;0;0
0;0;0;0
2;0;0;0
14;0;0;0
26;14;0;0
38;34;10;0
58;67;70;72
74;99;130;128
102;146;198;232
130;170;262;304
138;187;310;362
142;202;330;386
150;210;346;401
175;254;386;418
190;274;378;440
194;282;384;424
194;282;378;434
186;270;367;426
162;235;354;400
128;179;302;355
106;163;266;306
86;131;214;272
62;90;160;194
34;40;66;90
0;0;0;0
0;0;0;0
0;0;0;0
0;0;0;0
0;0;0;0
0;0;0;0
0;0;0;0
0;0;0;0
0;0;0;0
0;0;0;0
0;0;0;0
0;0;0;0
14;0;0;0
26;14;0;0
30;26;6;0
46;56;47;45
62;79;98;109
90;130;166;194
118;175;246;299
138;187;298;352
142;202;330;384
142;202;334;392
170;239;370;427
186;270;378;441
194;283;386;426
194;283;384;424
190;274;370;426
170;250;370;419
138;200;322;369
110;171;278;328
90;142;234;296
74;114;194;240
38;51;98;136
10;2;2;8
0;0;0;0
0;0;0;0
0;0;0;0
0;0;0;0
0;0;0;0
0;0;0;0
0;0;0;0
0;0;0;0
0;0;0;0
0;0;0;0
0;0;0;0
6;0;0;0
22;10;0;0
30;26;0;0
42;47;38;27
58;74;86;90
78;107;150;168
110;168;230;273
130;178;288;338
142;194;318;376
142;202;330;384
160;226;358;416
182;264;370;433
194;282;384;425
198;288;386;424
190;280;378;435
174;258;362;419
150;218;335;384
122;194;302;346
96;154;254;319
78;122;218;275
46;66;128;155
15;15;34;50
0;0;0;0
0;0;0;0
0;0;0;0
0;0;0;0
0;0;0;0
0;0;0;0
0;0;0;0
0;0;0;0
0;0;0;0
0;0;0;0
0;0;0;0
2;0;0;0
14;0;0;0
26;14;0;0
34;32;6;0
58;67;66;66
74;98;128;128
102;147;198;232
130;170;266;312
138;186;306;360
142;200;326;384
150;211;346;408
174;251;386;427
190;274;378;440
194;282;384;424
194;282;378;434
186;270;366;424
162;235;358;408
128;178;302;352
106;163;262;306
86;130;206;264
62;91;162;194
30;34;66;88
0;0;0;0
0;0;0;0
0;0;0;0
0;0;0;0
0;0;0;0
0;0;0;0
0;0;0;0
0;0;0;0
0;0;0;0
0;0;0;0
0;0;0;0
0;0;0;0
10;0;0;0
26;14;0;0
34;32;10;0
46;51;50;56
62;79;98;112
90;130;166;195
118;178;250;306
134;187;302;360
142;195;326;384
142;202;334;392
166;235;370;427
186;267;374;440
194;282;384;426
198;288;386;424
190;274;370;425
170;250;370;417
138;202;326;371
110;174;282;328
90;142;234;297
74;110;190;238
34;50;94;131
10;0;0;2
0;0;0;0
0;0;0;0
0;0;0;0
0;0;0;0
0;0;0;0
0;0;0;0
0;0;0;0
0;0;0;0
0;0;0;0
0;0;0;0
0;0;0;0
6;0;0;0
22;10;0;0
26;19;0;0
46;46;34;24
58;74;86;91
86;115;154;168
110;168;230;274
130;178;288;344
142;194;318;376
142;200;330;384
158;226;362;418
186;266;370;433
194;282;386;427
194;282;386;427
190;282;382;440
182;264;362;418
150;218;338;387
122;192;298;344
98;154;246;312
78;122;218;272
46;66;128;152
15;11;32;48
0;0;0;0
0;0;0;0
0;0;0;0
0;0;0;0
0;0;0;0
0;0;0;0
0;0;0;0
0;0;0;0
0;0;0;0
0;0;0;0
0;0;0;0
2;0;0;0
15;2;0;0
30;18;0;0
38;34;14;0
54;66;70;73
74;98;130;128
102;147;202;235
128;170;266;312
138;187;310;364
142;195;326;386
150;210;346;403
175;255;386;424
190;274;378;440
194;288;386;426
198;288;384;418
186;270;366;424
162;234;354;401
130;184;303;352
106;168;266;312
86;130;206;264
62;91;154;184
30;34;62;83
0;0;0;0
0;0;0;0
0;0;0;0
0;0;0;0
0;0;0;0
0;0;0;0
0;0;0;0
0;0;0;0
0;0;0;0
0;0;0;0
0;0;0;0
2;0;0;0
10;0;0;0
22;10;0;0
34;32;2;0
47;59;58;57
66;83;102;120
94;131;170;202
122;186;255;312
138;190;302;360
142;200;330;384
142;202;334;392
170;242;378;430
190;274;378;440
194;282;384;425
194;282;386;426
190;275;374;432
174;251;370;416
138;200;322;368
110;174;278;328
94;146;230;290
70;107;190;239
38;50;94;128
6;0;0;0
0;0;0;0
0;0;0;0
0;0;0;0
0;0;0;0
0;0;0;0
0;0;0;0
0;0;0;0
0;0;0;0
0;0;0;0
0;0;0;0
0;0;0;0
6;0;0;0
18;8;0;0
34;27;0;0
42;47;38;32
62;75;86;91
86;122;162;171
111;170;234;280
134;184;290;344
138;187;318;378
142;200;330;386
162;226;362;416
186;267;374;434
194;282;384;424
198;288;386;425
190;280;378;434
174;256;354;414
146;211;330;377
118;187;294;338
94;154;250;312
78;122;210;264
46;66;122;168
14;11;26;48
0;0;0;0
0;0;0;0
0;0;0;0
0;0;0;0
0;0;0;0
0;0;0;0
0;0;0;0
0;0;0;0
0;0;0;0
0;0;0;0
0;0;0;0
2;0;0;0
15;2;0;0
30;18;0;0
38;34;14;2
54;66;70;75
74;98;130;136
104;154;206;242
128;170;270;317
138;186;306;362
142;202;330;384
154;218;352;403
174;254;386;424
194;280;384;424
198;288;386;424
194;282;384;419
186;270;366;417
162;234;354;398
128;179;302;352
102;162;262;305
79;130;210;267
58;82;143;177
26;34;58;80
0;0;0;0
0;0;0;0
0;0;0;0
0;0;0;0
0;0;0;0
0;0;0;0
0;0;0;0
0;0;0;0
0;0;0;0
0;0;0;0
0;0;0;0
0;0;0;0
14;0;0;0
22;10;0;0
34;32;2;0
47;59;58;56
66;86;106;121
98;138;174;204
122;184;258;291
138;190;302;352
142;202;330;384
142;202;334;392
170;243;378;430
190;274;378;440
194;282;384;424
194;282;384;424
190;274;374;427
174;250;370;416
138;195;319;370
110;171;274;317
90;143;230;288
70;106;186;234
34;46;90;128
2;0;0;0
0;0;0;0
0;0;0;0
0;0;0;0
0;0;0;0
0;0;0;0
0;0;0;0
0;0;0;0
0;0;0;0
0;0;0;0
0;0;0;0
0;0;0;0
10;0;0;0
26;10;0;0
26;18;0;0
46;47;34;26
58;74;86;92
86;120;160;170
110;170;238;283
134;184;290;344
142;194;318;376
142;202;330;384
162;227;362;417
