## File generated by myo_cap software
## Available from github.com/ddantas/myo_cap
## Timestamp: 2018-05-23_20-57-32
##
## EMG capture settings##
# sampleRate: 2000.0
# channelsPerBoard: 4.0
# nBoards: 1.0
# bitsPerSample: 12.0
##
## Data
## t; ch0; ch1; ch2; ch3
 0 0 0
2 0 0 0
16 6 0 0
29 24 18 13
74 99 124 119
133 169 173 167
206 258 252 253
251 305 285 252
224 294 254 2 0 0
0 0 0 0
0 0 0 0
0 0 0 0
4 0 0 0
13 2 0 0
33 30 27 27
73 97 127 124
130 160 168 167
212 261 250 246
256 309 283 256
231 301 263 257
178 251 249 248
84 145 130 131
0 0 0 0
0 0 0 0
0 0 0 0
0 0 0 0
0 0 0 0
0 0 0 0
0 0 0 0
9 0 0 0
21 9 2 0
37 35 31 31
86 116 125 123
144 186 193 200
224 287 259 255
252 329 306 268
219 296 258 243
159 240 257 248
45 119 130 125
0 0 0 0
0 0 0 0
0 0 0 0
0 0 0 0
0 0 0 0
0 0 0 0
5 0 0 0
16 2 0 0
22 21 12 7
59 74 92 128
125 133 149 131
183 234 256 241
256 309 294 258
247 305 274 258
197 257 256 247
129 171 172 156
0 3 0 0
0 0 0 0
0 0 0 0
0 0 0 0
0 0 0 0
0 0 0 0
0 0 0 0
3 0 0 0
9 0 0 0
16 7 0 0
47 51 63 77
108 126 130 131
168 206 225 246
251 319 302 267
249 329 310 265
194 265 263 237
135 186 202 209
1 30 53 80
0 0 0 0
0 0 0 0
0 0 0 0
0 0 0 0
0 0 0 0
0 0 0 0
2 0 0 0
16 1 0 0
23 21 14 8
58 74 89 122
126 142 135 141
187 243 256 252
253 339 319 292
247 313 295 259
193 256 246 253
119 181 177 163
0 8 3 0
0 0 0 0
0 0 0 0
0 0 0 0
0 0 0 0
0 0 0 0
0 0 0 0
2 0 0 0
17 5 0 0
26 23 13 7
65 82 107 112
136 154 155 147
198 250 254 251
253 314 293 260
239 317 288 261
179 253 245 246
105 179 169 153
0 0 0 0
0 0 0 0
0 0 0 0
0 0 0 0
0 0 0 0
0 0 0 0
0 0 0 0
4 0 0 0
17 8 0 0
33 36 35 38
82 117 125 130
143 185 196 211
217 280 262 264
251 327 300 264
219 295 260 248
161 241 255 242
58 127 143 131
0 0 0 0
0 0 0 0
0 0 0 0
0 0 0 0
0 0 0 0
0 0 0 0
1 0 0 0
12 1 0 0
17 8 1 0
43 44 49 53
109 131 128 134
172 220 244 241
249 327 315 283
251 336 325 283
204 282 255 260
131 191 199 209
10 46 75 108
0 0 0 0
0 0 0 0
0 0 0 0
0 0 0 0
0 0 0 0
0 0 0 0
6 0 0 0
17 5 0 0
35 29 30 28
77 105 131 127
138 170 182 185
207 262 262 249
252 322 302 263
223 303 264 258
169 249 257 240
70 134 129 131
0 0 0 0
0 0 0 0
0 0 0 0
0 0 0 0
0 0 0 0
0 0 0 0
1 0 0 0
14 0 0 0
22 13 4 0
47 54 63 81
103 130 125 133
163 205 220 247
249 303 279 253
256 314 288 252
209 272 255 238
132 194 205 215
12 50 80 117
0 0 0 0
0 0 0 0
0 0 0 0
0 0 0 0
0 0 0 0
0 0 0 0
3 0 0 0
8 0 0 0
19 7 0 0
50 57 67 87
112 127 133 134
173 213 236 247
252 305 290 258
254 302 279 258
192 254 259 255
127 183 186 187
3 28 42 52
0 0 0 0
0 0 0 0
0 0 0 0
0 0 0 0
0 0 0 0
0 0 0 0
5 0 0 0
11 1 0 0
23 13 5 0
54 65 77 97
118 141 130 130
180 231 253 237
254 316 305 268
246 324 303 256
183 257 260 257
123 175 182 181
0 4 2 0
0 0 0 0
0 0 0 0
0 0 0 0
0 0 0 0
0 0 0 0
0 0 0 0
1 0 0 0
11 3 0 0
26 18 14 5
63 78 103 131
125 158 153 144
184 247 260 248
251 313 299 268
242 295 266 247
192 254 254 262
115 167 163 145
0 0 0 0
0 0 0 0
0 0 0 0
0 0 0 0
0 0 0 0
0 0 0 0
0 0 0 0
2 0 0 0
18 4 0 0
32 30 27 29
77 105 131 128
129 184 194 197
202 266 260 249
254 303 287 256
225 295 261 252
164 240 254 243
68 128 134 125
0 0 0 0
0 0 0 0
0 0 0 0
0 0 0 0
0 0 0 0
0 0 0 0
0 0 0 0
5 0 0 0
18 9 0 0
38 39 43 51
87 121 130 126
149 194 210 236
227 295 267 253
253 329 311 262
220 295 265 245
157 232 251 225
34 102 133 121
0 0 0 0
0 0 0 0
0 0 0 0
0 0 0 0
0 0 0 0
0 0 0 0
4 0 0 0
11 0 0 0
19 9 0 0
53 61 73 93
113 129 140 136
178 225 247 249
255 309 288 261
253 330 306 267
197 262 257 258
130 197 210 226
0 27 48 67
0 0 0 0
0 0 0 0
0 0 0 0
0 0 0 0
0 0 0 0
0 0 0 0
1 0 0 0
13 1 0 0
28 23 23 18
73 99 130 126
131 166 170 167
201 254 256 259
253 309 290 253
230 304 266 249
171 250 253 244
90 157 148 130
0 0 0 0
0 0 0 0
0 0 0 0
0 0 0 0
0 0 0 0
0 0 0 0
0 0 0 0
1 0 0 0
14 6 0 0
29 26 24 18
77 103 122 129
145 179 189 203
222 281 252 262
254 309 283 252
224 294 255 253
163 241 259 240
53 125 137 125
0 0 0 0
0 0 0 0
0 0 0 0
0 0 0 0
0 0 0 0
0 0 0 0
1 0 0 0
7 0 0 0
16 3 0 0
38 39 37 40
101 129 136 127
162 206 230 251
249 305 286 258
256 314 290 256
209 275 250 241
129 203 220 239
3 51 88 123
0 0 0 0
0 0 0 0
0 0 0 0
0 0 0 0
0 0 0 0
0 0 0 0
4 0 0 0
11 3 0 0
25 17 12 6
54 69 84 115
120 152 132 155
186 247 247 244
252 322 310 274
249 313 290 255
194 256 252 247
123 167 163 147
0 1 0 0
0 0 0 0
0 0 0 0
0 0 0 0
0 0 0 0
0 0 0 0
0 0 0 0
1 0 0 0
15 4 0 0
21 16 5 1
62 73 96 124
125 134 150 133
183 232 253 233
255 310 291 258
245 320 295 253
181 257 255 255
116 168 164 149
0 0 0 0
0 0 0 0
0 0 0 0
0 0 0 0
0 0 0 0
0 0 0 0
0 0 0 0
1 0 0 0
14 3 0 0
28 26 19 19
73 98 126 121
136 166 173 170
205 254 256 248
253 311 292 261
232 307 266 254
176 250 260 244
100 168 165 146
0 0 0 0
0 0 0 0
0 0 0 0
0 0 0 0
0 0 0 0
0 0 0 0
0 0 0 0
10 0 0 0
21 13 2 0
42 50 54 69
95 126 130 127
158 202 220 248
233 307 277 256
257 310 285 251
210 275 258 246
139 198 221 247
24 78 120 136
0 0 0 0
0 0 0 0
0 0 0 0
0 0 0 0
0 0 0 0
0 0 0 0
1 0 0 0
14 2 0 0
21 13 2 0
53 61 69 88
118 126 133 129
182 219 245 249
255 312 297 269
245 320 294 257
188 261 252 256
131 185 193 198
0 19 33 39
0 0 0 0
0 0 0 0
0 0 0 0
0 0 0 0
0 0 0 0
0 0 0 0
7 0 0 0
17 3 0 0
36 31 33 31
78 100 126 127
136 166 171 172
212 263 262 250
252 322 300 264
222 301 267 249
169 249 254 248
72 129 133 131
0 0 0 0
0 0 0 0
0 0 0 0
0 0 0 0
0 0 0 0
0 0 0 0
0 0 0 0
13 1 0 0
21 11 4 0
46 54 61 80
108 134 131 135
169 219 245 239
251 326 314 278
251 317 306 268
199 265 255 254
129 182 191 201
8 40 64 94
0 0 0 0
0 0 0 0
0 0 0 0
0 0 0 0
0 0 0 0
0 0 0 0
2 0 0 0
10 0 0 0
24 13 7 1
54 63 74 104
123 131 136 138
182 234 257 246
253 318 310 281
248 326 307 265
189 257 259 238
131 184 194 196
0 18 31 35
0 0 0 0
0 0 0 0
0 0 0 0
0 0 0 0
0 0 0 0
0 0 0 0
8 0 0 0
16 1 0 0
32 24 20 12
75 99 127 118
130 165 168 162
212 260 249 251
255 313 292 262
235 310 271 256
171 251 257 236
77 135 146 136
0 0 0 0
0 0 0 0
0 0 0 0
0 0 0 0
0 0 0 0
0 0 0 0
0 0 0 0
12 0 0 0
23 11 4 0
48 51 61 78
102 130 122 130
166 210 228 247
247 303 276 258
250 334 305 267
206 276 259 247
128 210 230 250
9 64 111 130
0 0 0 0
0 0 0 0
0 0 0 0
0 0 0 0
0 0 0 0
0 0 0 0
6 0 0 0
17 3 0 0
29 25 20 20
73 96 124 119
130 158 153 140
199 252 249 252
253 317 298 267
237 319 288 257
176 255 241 246
95 167 149 133
0 0 0 0
0 0 0 0
0 0 0 0
0 0 0 0
0 0 0 0
0 0 0 0
0 0 0 0
1 0 0 0
15 3 0 0
35 33 29 33
75 104 125 125
138 176 187 197
213 273 257 257
255 307 287 253
226 298 259 244
167 246 245 238
66 129 134 132
0 0 0 0
0 0 0 0
0 0 0 0
0 0 0 0
0 0 0 0
0 0 0 0
3 0 0 0
11 0 0 0
24 13 6 0
46 51 58 72
114 128 134 135
171 206 224 248
251 302 283 256
251 326 300 256
199 265 261 260
137 190 205 218
4 39 64 95
0 0 0 0
0 0 0 0
0 0 0 0
0 0 0 0
0 0 0 0
0 0 0 0
1 0 0 0
15 0 0 0
25 20 12 5
57 69 89 118
131 143 136 142
191 249 243 255
253 314 290 256
245 317 289 247
185 254 256 249
120 177 173 163
0 4 3 0
0 0 0 0
0 0 0 0
0 0 0 0
0 0 0 0
0 0 0 0
0 0 0 0
4 0 0 0
11 0 0 0
20 12 2 0
59 72 89 118
126 139 132 137
183 235 255 242
253 315 303 268
247 305 278 250
196 257 249 247
119 185 179 167
0 7 1 0
0 0 0 0
0 0 0 0
0 0 0 0
0 0 0 0
0 0 0 0
0 0 0 0
1 0 0 0
13 2 0 0
26 23 20 17
72 97 124 120
134 162 167 162
205 253 257 250
251 308 288 259
230 302 262 262
181 253 244 242
92 155 142 131
0 0 0 0
0 0 0 0
0 0 0 0
0 0 0 0
0 0 0 0
0 0 0 0
0 0 0 0
8 0 0 0
17 8 0 0
36 36 37 39
80 111 135 125
142 183 197 210
219 283 258 259
252 327 302 266
222 298 266 254
162 240 254 244
60 129 145 126
0 0 0 0
0 0 0 0
0 0 0 0
0 0 0 0
0 0 0 0
0 0 0 0
0 0 0 0
8 0 0 0
19 3 0 0
46 46 55 64
102 134 127 130
162 202 222 247
249 297 277 258
254 307 274 267
213 274 254 248
136 194 210 230
10 46 79 116
0 0 0 0
0 0 0 0
0 0 0 0
0 0 0 0
0 0 0 0
0 0 0 0
5 0 0 0
12 0 0 0
22 12 1 0
59 71 85 117
130 136 135 134
184 234 257 241
256 310 296 261
244 300 266 262
191 251 257 244
125 172 179 176
0 4 4 0
0 0 0 0
0 0 0 0
0 0 0 0
0 0 0 0
0 0 0 0
0 0 0 0
3 0 0 0
12 0 0 0
19 11 1 0
58 67 81 107
127 135 147 136
190 241 255 248
253 311 297 265
247 302 273 255
194 252 256 250
128 171 167 155
0 3 1 0
0 0 0 0
0 0 0 0
0 0 0 0
0 0 0 0
0 0 0 0
0 0 0 0
2 0 0 0
11 0 0 0
25 19 9 4
53 65 77 103
127 134 149 134
182 228 246 255
256 315 300 266
251 312 281 255
197 256 244 252
124 168 163 145
0 1 0 0
0 0 0 0
0 0 0 0
0 0 0 0
0 0 0 0
0 0 0 0
0 0 0 0
4 0 0 0
12 0 0 0
31 23 16 9
63 78 102 125
133 150 146 140
187 249 254 246
252 310 298 261
239 317 284 253
183 251 257 245
108 177 179 167
0 0 0 0
0 0 0 0
0 0 0 0
0 0 0 0
0 0 0 0
0 0 0 0
0 0 0 0
5 0 0 0
10 1 0 0
33 29 24 27
76 110 132 133
136 171 183 183
210 261 257 258
251 320 300 259
225 304 263 254
166 248 249 249
62 128 147 135
0 0 0 0
0 0 0 0
0 0 0 0
0 0 0 0
0 0 0 0
0 0 0 0
1 0 0 0
6 0 0 0
22 10 5 0
48 53 60 79
108 133 135 135
173 218 247 239
251 326 315 280
253 312 298 263
204 273 252 248
133 188 202 212
9 43 68 99
0 0 0 0
0 0 0 0
0 0 0 0
0 0 0 0
0 0 0 0
0 0 0 0
1 0 0 0
12 1 0 0
23 17 9 3
53 66 82 110
121 130 139 130
181 224 245 252
258 315 301 266
250 329 309 263
188 262 248 259
127 190 201 210
0 16 30 36
0 0 0 0
0 0 0 0
0 0 0 0
0 0 0 0
0 0 0 0
0 0 0 0
7 0 0 0
20 6 0 0
33 33 30 32
73 100 126 123
133 191 203 218
212 276 252 257
252 309 285 255
227 302 265 251
169 245 258 242
69 129 130 126
0 0 0 0
0 0 0 0
0 0 0 0
0 0 0 0
0 0 0 0
0 0 0 0
0 0 0 0
8 0 0 0
13 3 0 0
35 31 31 26
91 124 131 130
151 192 209 228
233 304 274 262
256 310 281 259
215 280 258 247
153 222 252 247
33 96 131 132
0 0 0 0
0 0 0 0
0 0 0 0
0 0 0 0
0 0 0 0
0 0 0 0
6 0 0 0
17 2 0 0
24 21 13 7
60 76 98 132
128 142 132 153
181 230 251 255
255 316 302 269
246 322 298 258
187 255 254 258
118 188 187 185
0 15 23 21
0 0 0 0
0 0 0 0
0 0 0 0
0 0 0 0
0 0 0 0
0 0 0 0
6 0 0 0
17 8 0 0
36 36 34 38
85 121 129 129
141 185 195 207
219 280 253 257
251 328 301 263
224 305 262 247
161 247 240 233
53 124 132 133
0 0 0 0
0 0 0 0
0 0 0 0
0 0 0 0
0 0 0 0
0 0 0 0
0 0 0 0
8 0 0 0
21 11 3 0
43 47 53 62
110 134 128 127
171 221 244 238
250 326 315 281
252 335 325 282
203 279 252 254
129 190 196 204
7 42 67 95
0 0 0 0
0 0 0 0
0 0 0 0
0 0 0 0
0 0 0 0
0 0 0 0
3 0 0 0
6 0 0 0
21 12 4 0
53 61 73 95
114 127 139 131
173 213 238 224
251 304 289 256
249 326 304 254
199 269 260 245
125 196 206 216
0 33 53 71
0 0 0 0
0 0 0 0
0 0 0 0
0 0 0 0
0 0 0 0
0 0 0 0
5 0 0 0
13 3 0 0
28 22 20 17
71 93 120 127
137 155 156 142
203 255 252 253
257 303 280 258
240 288 261 245
182 252 255 253
97 159 140 131
0 0 0 0
0 0 0 0
0 0 0 0
0 0 0 0
0 0 0 0
0 0 0 0
0 0 0 0
7 0 0 0
12 1 0 0
31 25 21 14
80 106 131 127
141 177 192 204
217 275 255 257
254 306 280 255
226 296 257 249
167 246 247 242
64 134 132 135
0 0 0 0
0 0 0 0
0 0 0 0
0 0 0 0
0 0 0 0
0 0 0 0
0 0 0 0
12 0 0 0
17 6 0 0
45 48 55 66
102 130 132 136
166 212 238 232
249 323 314 279
252 315 303 262
202 263 262 254
133 194 211 227
10 44 77 113
0 0 0 0
0 0 0 0
0 0 0 0
0 0 0 0
0 0 0 0
0 0 0 0
4 0 0 0
14 3 0 0
31 25 20 19
73 98 126 121
134 159 162 147
203 250 255 245
254 311 294 258
236 316 283 251
179 254 247 244
95 161 153 134
0 0 0 0
0 0 0 0
0 0 0 0
0 0 0 0
0 0 0 0
0 0 0 0
0 0 0 0
1 0 0 0
14 4 0 0
31 23 17 11
82 110 129 117
136 171 175 172
216 273 254 247
257 303 283 256
225 297 256 251
165 245 243 239
53 125 131 131
0 0 0 0
0 0 0 0
0 0 0 0
0 0 0 0
0 0 0 0
0 0 0 0
0 0 0 0
8 0 0 0
17 3 0 0
46 45 52 61
99 126 134 126
157 197 212 231
241 285 259 261
253 300 274 264
212 270 253 259
145 202 220 241
25 75 119 134
0 0 0 0
0 0 0 0
0 0 0 0
0 0 0 0
0 0 0 0
0 0 0 0
3 0 0 0
8 0 0 0
18 7 0 0
50 55 65 84
106 129 132 131
168 206 232 246
249 321 305 263
249 330 314 266
201 272 256 245
130 181 191 187
0 30 47 59
0 0 0 0
0 0 0 0
0 0 0 0
0 0 0 0
0 0 0 0
0 0 0 0
2 0 0 0
9 0 0 0
18 7 0 0
51 55 64 83
114 128 136 131
176 221 248 246
251 327 316 287
252 336 327 284
200 275 254 252
134 191 210 219
0 36 58 89
0 0 0 0
0 0 0 0
0 0 0 0
0 0 0 0
0 0 0 0
0 0 0 0
1 0 0 0
13 2 0 0
29 20 17 12
71 89 121 133
136 153 160 149
202 252 256 245
254 302 283 250
236 314 278 245
184 254 258 248
98 164 159 145
0 0 0 0
0 0 0 0
0 0 0 0
0 0 0 0
0 0 0 0
0 0 0 0
0 0 0 0
5 0 0 0
11 1 0 0
28 20 13 6
74 94 119 129
135 167 165 160
202 256 253 254
253 307 286 253
235 311 271 256
172 252 258 241
89 156 145 133
0 0 0 0
0 0 0 0
0 0 0 0
0 0 0 0
0 0 0 0
0 0 0 0
0 0 0 0
8 0 0 0
22 8 1 0
33 31 27 26
85 119 128 130
141 185 195 203
217 283 255 259
251 328 301 265
215 295 258 245
155 230 253 251
47 116 132 133
0 0 0 0
0 0 0 0
0 0 0 0
0 0 0 0
0 0 0 0
0 0 0 0
0 0 0 0
5 0 0 0
13 3 0 0
34 35 33 40
100 128 131 130
165 205 230 247
248 300 276 256
253 305 273 263
211 271 253 256
134 200 213 240
12 51 84 124
0 0 0 0
0 0 0 0
0 0 0 0
0 0 0 0
0 0 0 0
0 0 0 0
0 0 0 0
11 0 0 0
32 23 20 17
74 96 125 121
134 163 165 158
203 258 258 250
252 328 308 265
230 314 282 245
180 255 250 251
93 164 149 132
0 0 0 0
0 0 0 0
0 0 0 0
0 0 0 0
0 0 0 0
0 0 0 0
0 0 0 0
1 0 0 0
17 6 0 0
36 33 35 34
83 114 131 130
136 175 179 184
216 276 263 259
252 306 288 260
220 286 256 257
160 235 251 224
60 129 144 128
0 0 0 0
0 0 0 0
0 0 0 0
0 0 0 0
0 0 0 0
0 0 0 0
2 0 0 0
11 0 0 0
17 7 0 0
44 49 56 69
96 132 133 129
153 194 207 224
245 295 266 268
255 308 280 258
208 265 260 257
133 203 220 244
17 68 115 131
0 0 0 0
0 0 0 0
0 0 0 0
0 0 0 0
0 0 0 0
0 0 0 0
1 0 0 0
16 3 0 0
30 24 23 21
69 91 117 127
129 154 150 138
198 255 258 243
253 306 291 262
231 302 262 260
179 255 242 246
98 164 155 131
0 0 0 0
0 0 0 0
0 0 0 0
0 0 0 0
0 0 0 0
0 0 0 0
0 0 0 0
7 0 0 0
12 1 0 0
28 24 15 8
76 100 129 123
133 190 201 212
213 279 255 257
256 311 289 260
227 301 265 249
166 246 247 240
68 127 138 127
0 0 0 0
0 0 0 0
0 0 0 0
0 0 0 0
0 0 0 0
0 0 0 0
1 0 0 0
8 0 0 0
19 8 0 0
41 38 39 37
92 125 126 123
150 189 202 212
232 300 265 254
256 309 275 270
213 280 258 251
155 218 247 251
29 90 127 127
0 0 0 0
0 0 0 0
0 0 0 0
0 0 0 0
0 0 0 0
0 0 0 0
0 0 0 0
12 0 0 0
23 10 1 0
59 68 81 108
125 133 143 132
182 231 248 259
256 307 289 262
248 314 288 261
191 261 253 255
122 175 176 173
0 7 8 1
0 0 0 0
0 0 0 0
0 0 0 0
0 0 0 0
0 0 0 0
0 0 0 0
1 0 0 0
15 2 0 0
17 8 1 0
45 49 52 62
114 130 137 137
177 220 243 245
251 327 308 272
251 333 320 269
194 266 260 237
133 184 201 209
0 23 40 53
0 0 0 0
0 0 0 0
0 0 0 0
0 0 0 0
0 0 0 0
0 0 0 0
4 0 0 0
12 0 0 0
18 13 1 0
62 71 89 116
130 140 139 133
191 242 252 254
255 313 287 253
246 319 291 248
183 258 247 246
115 171 166 148
0 2 0 0
0 0 0 0
0 0 0 0
0 0 0 0
0 0 0 0
0 0 0 0
0 0 0 0
6 0 0 0
10 0 0 0
25 20 14 11
68 83 110 115
132 155 157 146
198 255 247 251
253 334 311 279
231 317 286 254
178 254 258 251
98 160 147 138
0 0 0 0
0 0 0 0
0 0 0 0
0 0 0 0
0 0 0 0
0 0 0 0
0 0 0 0
5 0 0 0
15 4 0 0
30 25 20 15
72 99 125 121
131 180 191 197
203 259 254 259
250 301 279 254
226 297 259 247
168 250 245 254
72 138 135 131
0 0 0 0
0 0 0 0
0 0 0 0
0 0 0 0
0 0 0 0
0 0 0 0
1 0 0 0
7 0 0 0
18 12 1 0
38 37 40 43
98 126 141 128
157 191 211 218
238 313 283 252
257 309 283 261
219 285 251 258
144 206 223 248
25 77 121 128
0 0 0 0
0 0 0 0
0 0 0 0
0 0 0 0
0 0 0 0
0 0 0 0
1 0 0 0
16 2 0 0
24 21 15 11
68 89 118 126
135 156 160 154
200 259 255 242
253 318 303 266
236 316 281 245
185 254 255 255
105 172 160 141
0 0 0 0
0 0 0 0
0 0 0 0
0 0 0 0
0 0 0 0
0 0 0 0
0 0 0 0
13 0 0 0
23 9 3 0
35 36 33 34
90 123 131 129
142 182 190 197
221 285 257 261
251 328 300 265
214 292 262 259
159 234 256 238
52 122 142 129
0 0 0 0
0 0 0 0
0 0 0 0
0 0 0 0
0 0 0 0
0 0 0 0
2 0 0 0
10 0 0 0
23 13 7 1
55 67 80 109
124 134 133 134
180 233 254 232
253 319 306 269
245 319 298 252
191 262 251 234
125 179 184 175
0 10 13 6
0 0 0 0
0 0 0 0
0 0 0 0
0 0 0 0
0 0 0 0
0 0 0 0
5 0 0 0
12 0 0 0
24 16 7 0
55 69 83 110
128 140 132 134
192 249 245 247
253 314 293 257
240 326 292 259
184 259 251 244
120 177 174 161
0 3 0 0
0 0 0 0
0 0 0 0
0 0 0 0
0 0 0 0
0 0 0 0
0 0 0 0
1 0 0 0
9 3 0 0
19 10 2 0
58 69 83 114
128 135 151 141
189 238 256 249
253 310 289 260
246 319 292 253
181 255 252 252
122 179 178 172
0 9 7 2
0 0 0 0
0 0 0 0
0 0 0 0
0 0 0 0
0 0 0 0
0 0 0 0
4 0 0 0
10 1 0 0
30 20 15 12
72 93 117 131
135 161 160 154
197 253 259 248
253 309 294 257
237 317 284 253
180 254 244 250
103 176 163 142
0 0 0 0
0 0 0 0
0 0 0 0
0 0 0 0
0 0 0 0
0 0 0 0
0 0 0 0
7 0 0 0
18 7 0 0
36 32 31 27
87 119 127 131
143 185 195 203
217 283 254 259
251 326 301 263
216 295 264 246
154 232 250 255
50 123 142 127
0 0 0 0
0 0 0 0
0 0 0 0
0 0 0 0
0 0 0 0
0 0 0 0
0 0 0 0
9 0 0 0
22 11 3 0
45 48 54 62
106 129 126 133
170 221 242 240
251 326 315 281
254 310 296 261
196 259 254 243
135 183 201 208
2 27 48 63
0 0 0 0
0 0 0 0
0 0 0 0
0 0 0 0
0 0 0 0
0 0 0 0
5 0 0 0
9 0 0 0
22 8 1 0
48 57 64 83
109 130 128 135
171 207 223 247
253 295 273 263
251 323 293 250
197 262 252 245
138 186 201 206
5 32 57 79
0 0 0 0
0 0 0 0
0 0 0 0
0 0 0 0
0 0 0 0
0 0 0 0
4 0 0 0
15 2 0 0
25 20 12 6
57 71 92 115
128 141 133 134
192 247 248 241
254 313 302 262
248 307 280 257
196 256 256 255
126 170 168 159
0 0 0 0
0 0 0 0
0 0 0 0
0 0 0 0
0 0 0 0
0 0 0 0
0 0 0 0
2 0 0 0
14 4 0 0
25 16 11 2
69 85 110 118
135 153 155 151
200 258 249 254
253 309 285 249
237 312 273 256
186 254 255 249
105 173 160 139
0 0 0 0
0 0 0 0
0 0 0 0
0 0 0 0
0 0 0 0
0 0 0 0
0 0 0 0
6 0 0 0
15 1 0 0
36 29 32 34
76 108 127 128
136 172 184 180
211 269 262 246
251 325 302 264
220 295 262 248
158 235 257 234
53 121 132 133
0 0 0 0
0 0 0 0
0 0 0 0
0 0 0 0
0 0 0 0
0 0 0 0
3 0 0 0
11 0 0 0
18 7 0 0
44 50 57 73
98 129 130 133
160 201 213 238
246 294 265 263
253 304 271 266
206 265 262 263
129 201 213 237
7 52 92 125
0 0 0 0
0 0 0 0
0 0 0 0
0 0 0 0
0 0 0 0
0 0 0 0
1 0 0 0
10 1 0 0
20 13 5 1
53 64 79 105
120 147 135 134
180 234 260 242
255 313 299 262
246 325 303 254
182 262 248 254
122 201 210 224
0 27 47 70
0 0 0 0
0 0 0 0
0 0 0 0
0 0 0 0
0 0 0 0
0 0 0 0
6 0 0 0
10 1 0 0
34 29 28 27
80 105 127 131
135 168 169 163
213 267 260 249
253 295 272 263
222 285 254 255
160 233 256 226
61 128 140 124
0 0 0 0
0 0 0 0
0 0 0 0
0 0 0 0
0 0 0 0
0 0 0 0
0 0 0 0
5 0 0 0
12 1 0 0
35 31 26 28
91 126 122 131
145 186 195 206
229 296 264 259
255 305 283 257
210 274 248 256
142 202 222 240
29 84 132 130
0 0 0 0
0 0 0 0
0 0 0 0
0 0 0 0
0 0 0 0
0 0 0 0
2 0 0 0
9 0 0 0
18 7 0 0
50 51 60 77
111 133 134 134
171 214 233 249
254 304 287 256
250 304 279 260
199 260 249 254
134 174 178 175
7 31 45 57
0 0 0 0
0 0 0 0
0 0 0 0
0 0 0 0
0 0 0 0
0 0 0 0
2 0 0 0
14 1 0 0
26 19 14 9
56 69 88 116
129 140 132 137
191 244 247 241
255 312 302 260
247 323 298 262
187 255 259 261
119 192 198 201
0 13 21 22
0 0 0 0
0 0 0 0
0 0 0 0
0 0 0 0
0 0 0 0
0 0 0 0
3 0 0 0
18 5 1 0
32 28 24 27
84 117 124 122
141 180 187 192
226 288 261 249
253 310 287 256
218 286 262 261
155 228 249 250
46 114 130 129
0 0 0 0
0 0 0 0
0 0 0 0
0 0 0 0
0 0 0 0
0 0 0 0
0 0 0 0
7 0 0 0
21 11 0 0
49 56 66 85
108 130 128 132
175 215 235 252
251 305 288 258
251 327 302 258
199 266 256 261
139 190 205 219
7 38 63 94
0 0 0 0
0 0 0 0
0 0 0 0
0 0 0 0
0 0 0 0
0 0 0 0
0 0 0 0
11 0 0 0
25 18 12 6
63 78 102 128
125 158 153 135
185 248 259 247
252 312 301 266
242 293 262 258
183 253 240 245
119 169 169 159
0 0 0 0
0 0 0 0
0 0 0 0
0 0 0 0
0 0 0 0
0 0 0 0
0 0 0 0
2 0 0 0
16 5 0 0
34 30 27 28
79 106 128 128
133 167 166 162
208 260 253 248
252 308 289 254
228 293 255 257
165 242 255 252
67 129 132 123
0 0 0 0
0 0 0 0
0 0 0 0
0 0 0 0
0 0 0 0
0 0 0 0
1 0 0 0
9 0 0 0
22 9 4 0
39 36 36 38
99 126 128 127
152 192 203 214
232 303 270 258
255 315 289 256
219 290 255 262
151 220 242 250
36 101 137 126
0 0 0 0
0 0 0 0
0 0 0 0
0 0 0 0
0 0 0 0
0 0 0 0
2 0 0 0
13 2 0 0
28 23 16 13
70 93 119 133
135 158 159 152
201 250 258 254
256 300 277 261
236 309 267 259
179 254 246 243
103 178 176 164
0 0 0 0
0 0 0 0
0 0 0 0
0 0 0 0
0 0 0 0
0 0 0 0
0 0 0 0
10 0 0 0
13 7 0 0
34 37 36 42
89 123 133 130
141 183 191 202
228 294 261 254
252 310 288 256
216 283 255 252
152 218 244 233
38 103 132 127
0 0 0 0
0 0 0 0
0 0 0 0
0 0 0 0
0 0 0 0
0 0 0 0
3 0 0 0
11 0 0 0
18 9 0 0
49 58 66 84
114 130 136 136
178 223 242 247
251 308 289 255
249 325 300 253
193 260 251 246
130 200 212 225
0 37 64 94
0 0 0 0
0 0 0 0
0 0 0 0
0 0 0 0
0 0 0 0
0 0 0 0
4 0 0 0
17 5 0 0
33 22 23 19
74 97 127 123
133 164 165 162
199 250 255 254
253 309 283 262
237 317 276 255
179 251 258 241
92 152 138 125
0 0 0 0
0 0 0 0
0 0 0 0
0 0 0 0
0 0 0 0
0 0 0 0
0 0 0 0
4 0 0 0
16 10 0 0
38 37 40 46
86 116 124 130
147 194 208 226
218 287 260 269
254 312 289 253
220 291 262 249
159 235 254 242
50 122 138 124
0 0 0 0
0 0 0 0
0 0 0 0
0 0 0 0
0 0 0 0
0 0 0 0
1 0 0 0
8 0 0 0
20 5 0 0
46 46 53 66
107 131 126 137
169 212 231 252
249 325 310 279
251 317 301 261
199 262 261 255
131 192 209 231
14 54 87 130
0 0 0 0
0 0 0 0
0 0 0 0
0 0 0 0
0 0 0 0
0 0 0 0
5 0 0 0
16 4 0 0
35 27 26 21
75 101 132 127
132 171 175 178
210 260 254 245
257 309 287 250
231 303 264 251
174 249 256 245
84 147 134 136
0 0 0 0
0 0 0 0
0 0 0 0
0 0 0 0
0 0 0 0
0 0 0 0
0 0 0 0
6 0 0 0
11 2 0 0
35 27 28 25
83 110 132 120
142 178 185 191
219 280 254 258
251 306 287 259
219 290 258 253
152 223 247 240
45 113 147 127
0 0 0 0
0 0 0 0
0 0 0 0
0 0 0 0
0 0 0 0
0 0 0 0
0 0 0 0
8 0 0 0
22 10 3 0
45 49 52 67
115 131 133 134
170 209 227 251
252 321 307 274
251 333 319 272
198 270 264 247
135 189 206 219
0 28 48 69
0 0 0 0
0 0 0 0
0 0 0 0
0 0 0 0
0 0 0 0
0 0 0 0
1 0 0 0
8 0 0 0
20 8 1 0
46 48 52 60
114 130 137 135
177 218 250 248
251 327 317 288
249 334 321 283
197 267 263 248
134 188 203 218
1 30 57 81
0 0 0 0
0 0 0 0
0 0 0 0
0 0 0 0
0 0 0 0
0 0 0 0
3 0 0 0
10 0 0 0
24 21 13 12
69 86 117 125
134 154 159 153
201 258 254 245
251 314 296 268
232 311 277 252
177 254 247 244
101 171 165 144
0 0 0 0
0 0 0 0
0 0 0 0
0 0 0 0
0 0 0 0
0 0 0 0
0 0 0 0
7 0 0 0
14 1 0 0
34 32 34 35
83 115 124 128
146 186 200 211
219 280 253 260
253 306 282 248
220 287 260 259
157 229 251 257
53 122 138 127
0 0 0 0
0 0 0 0
0 0 0 0
0 0 0 0
0 0 0 0
0 0 0 0
1 0 0 0
9 0 0 0
22 11 3 0
45 46 51 58
109 133 129 130
169 221 243 244
249 326 315 282
251 335 325 282
204 280 255 258
129 191 197 209
7 46 70 104
0 0 0 0
0 0 0 0
0 0 0 0
0 0 0 0
0 0 0 0
0 0 0 0
9 0 0 0
21 4 0 0
26 21 13 2
60 77 96 126
129 149 141 132
195 252 260 245
253 310 292 254
242 296 266 254
187 256 248 249
122 183 179 172
0 1 0 0
0 0 0 0
0 0 0 0
0 0 0 0
0 0 0 0
0 0 0 0
0 0 0 0
7 0 0 0
17 4 0 0
36 30 29 30
79 107 129 130
136 171 176 179
208 260 253 245
252 309 290 261
223 295 259 249
170 249 246 253
79 140 131 135
0 0 0 0
0 0 0 0
0 0 0 0
0 0 0 0
0 0 0 0
0 0 0 0
0 0 0 0
7 0 0 0
22 9 2 0
38 36 33 34
93 128 130 130
152 193 212 234
234 304 274 254
254 309 280 257
219 292 253 247
154 227 245 248
36 103 133 128
0 0 0 0
0 0 0 0
0 0 0 0
0 0 0 0
0 0 0 0
0 0 0 0
1 0 0 0
15 1 0 0
25 20 15 9
56 70 85 113
130 142 135 137
189 247 248 248
255 314 298 266
243 302 270 253
194 255 258 251
124 168 165 153
0 0 0 0
0 0 0 0
0 0 0 0
0 0 0 0
0 0 0 0
0 0 0 0
0 0 0 0
3 0 0 0
17 4 0 0
27 18 11 2
72 88 117 122
132 150 150 133
197 253 249 253
253 314 294 259
239 319 287 262
187 254 252 252
108 178 170 157
0 0 0 0
0 0 0 0
0 0 0 0
0 0 0 0
0 0 0 0
0 0 0 0
0 0 0 0
8 0 0 0
10 1 0 0
35 30 27 29
83 112 136 131
136 172 175 179
217 273 259 253
252 326 308 263
222 300 268 250
165 249 246 255
61 133 135 130
0 0 0 0
0 0 0 0
0 0 0 0
0 0 0 0
0 0 0 0
0 0 0 0
3 0 0 0
7 0 0 0
13 2 0 0
37 35 31 34
102 128 129 131
162 212 235 261
244 302 281 256
257 316 290 255
211 275 253 247
136 194 210 230
13 58 96 133
0 0 0 0
0 0 0 0
0 0 0 0
0 0 0 0
0 0 0 0
0 0 0 0
1 0 0 0
16 1 0 0
23 12 6 0
51 61 68 92
115 134 140 129
177 224 247 249
252 312 297 260
247 323 299 258
186 260 253 239
127 182 188 188
0 11 12 8
0 0 0 0
0 0 0 0
0 0 0 0
0 0 0 0
0 0 0 0
0 0 0 0
3 0 0 0
16 4 0 0
28 19 13 5
69 87 114 120
137 155 159 153
202 256 246 259
255 318 301 265
235 312 279 252
184 254 255 254
104 168 155 133
0 0 0 0
0 0 0 0
0 0 0 0
0 0 0 0
0 0 0 0
0 0 0 0
0 0 0 0
11 0 0 0
21 9 0 0
40 44 46 57
88 122 127 125
144 184 195 203
227 297 268 256
253 310 292 257
216 284 259 259
153 221 246 244
41 104 132 133
0 0 0 0
0 0 0 0
0 0 0 0
0 0 0 0
0 0 0 0
0 0 0 0
4 0 0 0
14 3 0 0
25 20 14 9
63 77 98 129
132 147 138 137
192 247 246 242
254 315 302 265
244 315 288 256
182 254 250 247
118 171 168 153
0 1 0 0
0 0 0 0
0 0 0 0
0 0 0 0
0 0 0 0
0 0 0 0
0 0 0 0
5 0 0 0
17 2 0 0
29 24 21 19
73 95 121 121
133 163 164 162
205 258 261 253
257 305 284 256
238 315 279 253
177 255 248 246
95 166 159 136
0 0 0 0
0 0 0 0
0 0 0 0
0 0 0 0
0 0 0 0
0 0 0 0
0 0 0 0
4 0 0 0
16 5 0 0
32 26 24 18
77 106 132 128
136 168 176 170
218 269 254 254
251 303 282 250
218 286 255 246
162 233 256 237
63 130 148 130
0 0 0 0
0 0 0 0
0 0 0 0
0 0 0 0
0 0 0 0
0 0 0 0
1 0 0 0
8 0 0 0
15 3 0 0
40 40 44 51
91 125 126 126
154 197 216 240
242 290 263 261
254 303 269 261
213 273 252 259
144 206 230 248
29 84 133 129
0 0 0 0
0 0 0 0
0 0 0 0
0 0 0 0
0 0 0 0
0 0 0 0
4 0 0 0
10 0 0 0
29 20 13 9
65 78 105 128
130 164 161 155
193 254 246 257
255 311 288 259
246 302 266 261
191 251 256 243
121 167 169 157
0 0 0 0
0 0 0 0
0 0 0 0
0 0 0 0
0 0 0 0
0 0 0 0
0 0 0 0
6 0 0 0
18 5 0 0
32 24 22 14
77 105 131 127
139 171 182 189
213 267 261 249
252 302 283 252
228 296 257 244
172 251 243 247
75 141 130 128
0 0 0 0
0 0 0 0
0 0 0 0
0 0 0 0
0 0 0 0
0 0 0 0
1 0 0 0
6 0 0 0
13 2 0 0
34 30 25 25
95 123 132 129
151 192 205 224
234 304 272 263
255 316 288 253
217 287 250 258
149 212 238 248
35 96 134 131
0 0 0 0
0 0 0 0
0 0 0 0
0 0 0 0
0 0 0 0
0 0 0 0
1 0 0 0
14 1 0 0
17 8 0 0
42 46 46 57
113 130 136 132
173 219 246 241
253 311 297 264
251 310 290 252
193 258 249 254
131 186 196 208
0 27 43 55
0 0 0 0
0 0 0 0
0 0 0 0
0 0 0 0
0 0 0 0
0 0 0 0
1 0 0 0
13 3 0 0
28 21 17 14
71 91 117 130
132 157 153 142
197 254 242 246
252 314 289 256
236 321 288 254
183 256 251 247
101 164 153 130
0 0 0 0
0 0 0 0
0 0 0 0
0 0 0 0
0 0 0 0
0 0 0 0
0 0 0 0
5 0 0 0
18 6 0 0
33 27 25 22
84 116 119 130
140 179 184 185
216 277 260 254
253 305 288 258
219 288 253 259
162 235 254 241
54 125 135 125
0 0 0 0
0 0 0 0
0 0 0 0
0 0 0 0
0 0 0 0
0 0 0 0
0 0 0 0
14 0 0 0
20 7 0 0
50 53 64 79
104 127 134 129
163 200 218 246
249 300 276 249
256 310 280 261
207 268 261 246
125 191 202 211
2 42 68 101
0 0 0 0
0 0 0 0
0 0 0 0
0 0 0 0
0 0 0 0
0 0 0 0
1 0 0 0
12 3 0 0
28 23 18 15
72 95 119 136
132 162 159 155
198 252 250 259
256 316 299 264
239 293 266 250
180 251 257 250
102 168 157 135
0 0 0 0
0 0 0 0
0 0 0 0
0 0 0 0
0 0 0 0
0 0 0 0
0 0 0 0
7 0 0 0
17 6 0 0
40 38 39 43
91 122 134 125
147 181 192 200
220 281 252 259
252 309 283 253
217 285 260 257
158 227 247 252
56 125 131 133
0 0 0 0
0 0 0 0
0 0 0 0
0 0 0 0
0 0 0 0
0 0 0 0
1 0 0 0
14 1 0 0
21 9 0 0
46 48 51 56
110 133 133 127
173 214 241 230
251 322 310 269
249 334 318 271
194 267 260 245
135 191 207 222
1 35 52 83
0 0 0 0
0 0 0 0
0 0 0 0
0 0 0 0
0 0 0 0
0 0 0 0
0 0 0 0
8 0 0 0
16 6 0 0
47 53 59 74
108 133 133 136
173 213 236 253
254 303 288 256
251 306 281 257
199 263 255 238
135 193 205 217
1 32 53 77
0 0 0 0
0 0 0 0
0 0 0 0
0 0 0 0
0 0 0 0
0 0 0 0
1 0 0 0
13 2 0 0
24 20 14 6
60 79 101 131
124 157 151 140
184 247 259 247
250 332 318 289
243 309 288 255
182 253 251 252
119 174 174 163
0 0 0 0
0 0 0 0
0 0 0 0
0 0 0 0
0 0 0 0
0 0 0 0
0 0 0 0
7 0 0 0
17 5 0 0
35 32 31 31
81 109 136 125
139 177 185 193
215 268 268 259
255 300 280 257
228 294 261 251
167 249 248 245
72 136 151 130
0 0 0 0
0 0 0 0
0 0 0 0
0 0 0 0
0 0 0 0
0 0 0 0
1 0 0 0
8 0 0 0
22 10 3 0
41 40 44 49
100 124 131 124
166 205 230 247
246 297 274 270
255 305 276 250
214 273 247 251
142 195 212 225
10 53 87 127
0 0 0 0
0 0 0 0
0 0 0 0
0 0 0 0
0 0 0 0
0 0 0 0
4 0 0 0
11 0 0 0
31 23 16 10
72 90 122 128
134 153 156 145
200 255 252 258
253 310 287 255
237 313 274 262
186 254 257 255
109 174 163 147
0 0 0 0
0 0 0 0
0 0 0 0
0 0 0 0
0 0 0 0
0 0 0 0
0 0 0 0
10 0 0 0
19 12 4 0
42 45 54 65
93 124 126 131
153 197 215 232
237 313 289 254
258 312 290 251
218 290 256 256
151 219 245 231
37 101 133 128
0 0 0 0
0 0 0 0
0 0 0 0
0 0 0 0
0 0 0 0
0 0 0 0
1 0 0 0
18 3 0 0
31 23 21 20
73 95 121 118
133 161 163 156
201 253 253 261
252 310 288 257
237 318 283 253
186 254 258 248
105 169 158 137
0 0 0 0
0 0 0 0
0 0 0 0
0 0 0 0
0 0 0 0
0 0 0 0
0 0 0 0
8 0 0 0
18 9 3 0
41 38 42 48
90 120 133 128
144 175 185 193
223 284 254 253
253 302 271 264
222 284 260 250
164 237 254 241
57 128 136 128
0 0 0 0
0 0 0 0
0 0 0 0
0 0 0 0
0 0 0 0
0 0 0 0
0 0 0 0
4 0 0 0
19 11 1 0
43 45 50 57
109 132 128 137
173 219 244 239
251 327 315 283
251 336 325 282
204 282 255 261
129 190 197 210
2 37 53 78
0 0 0 0
0 0 0 0
0 0 0 0
0 0 0 0
0 0 0 0
0 0 0 0
1 0 0 0
15 1 0 0
25 21 14 9
61 75 103 132
125 157 151 141
182 247 256 244
251 330 317 288
246 309 288 256
191 257 256 258
119 182 185 179
0 4 4 0
0 0 0 0
0 0 0 0
0 0 0 0
0 0 0 0
0 0 0 0
0 0 0 0
1 0 0 0
17 4 0 0
27 24 15 9
70 93 122 129
136 163 169 168
203 257 260 253
254 306 282 255
232 303 266 254
176 250 252 252
99 166 154 138
0 0 0 0
0 0 0 0
0 0 0 0
0 0 0 0
0 0 0 0
0 0 0 0
0 0 0 0
8 0 0 0
20 8 2 0
38 34 35 39
84 118 126 131
139 180 189 194
218 281 249 255
253 302 270 261
218 284 256 255
155 232 250 246
56 124 135 126
0 0 0 0
0 0 0 0
0 0 0 0
0 0 0 0
0 0 0 0
0 0 0 0
0 0 0 0
8 0 0 0
19 11 1 0
40 43 43 51
100 131 135 133
160 203 221 246
248 319 302 269
251 333 318 269
198 270 253 241
135 197 217 239
8 45 76 117
0 0 0 0
0 0 0 0
0 0 0 0
0 0 0 0
0 0 0 0
0 0 0 0
6 0 0 0
17 4 0 0
20 13 4 0
56 70 81 113
121 129 138 129
179 220 241 248
253 313 292 260
246 298 266 260
192 250 256 244
132 176 186 185
0 7 11 7
0 0 0 0
0 0 0 0
0 0 0 0
0 0 0 0
0 0 0 0
0 0 0 0
2 0 0 0
9 0 0 0
18 9 1 0
54 57 70 88
122 133 128 136
178 224 249 243
255 314 307 273
254 307 287 248
198 259 253 259
128 188 190 197
0 30 43 58
0 0 0 0
0 0 0 0
0 0 0 0
0 0 0 0
0 0 0 0
0 0 0 0
1 0 0 0
12 4 0 0
26 14 7 0
61 75 95 125
127 138 130 132
189 247 249 252
255 313 296 264
244 297 262 253
185 254 243 241
120 193 199 201
0 12 18 20
0 0 0 0
0 0 0 0
0 0 0 0
0 0 0 0
0 0 0 0
0 0 0 0
10 0 0 0
18 11 1 0
41 41 44 46
95 125 129 125
154 193 209 229
242 289 266 253
254 309 283 248
209 269 256 259
139 197 217 241
23 71 118 132
0 0 0 0
0 0 0 0
0 0 0 0
0 0 0 0
0 0 0 0
0 0 0 0
4 0 0 0
13 3 0 0
26 23 19 16
70 92 118 132
140 161 163 155
202 254 253 261
256 302 276 257
239 309 268 256
187 254 259 242
108 169 167 142
0 0 0 0
0 0 0 0
0 0 0 0
0 0 0 0
0 0 0 0
0 0 0 0
0 0 0 0
7 0 0 0
18 7 0 0
38 38 38 44
87 123 129 132
141 188 198 211
218 283 255 254
255 302 277 252
218 284 257 263
154 225 246 246
53 125 138 130
0 0 0 0
0 0 0 0
0 0 0 0
0 0 0 0
0 0 0 0
0 0 0 0
1 0 0 0
12 1 0 0
18 8 0 0
46 52 61 74
112 126 130 136
180 221 248 241
254 303 288 259
251 306 283 255
200 257 254 253
130 190 203 215
7 41 66 96
0 0 0 0
0 0 0 0
0 0 0 0
0 0 0 0
0 0 0 0
0 0 0 0
5 0 0 0
6 1 0 0
16 7 0 0
44 50 54 69
108 130 140 134
177 221 249 253
250 310 286 26148
202 255 252 254
255 307 280 252
234 305 261 259
176 250 256 250
89 145 132 132
0 0 0 0
0 0 0 0
0 0 0 0
0 0 0 0
0 0 0 0
0 0 0 0
0 0 0 0
9 0 0 0
21 10 3 0
38 36 36 36
86 118 135 121
148 186 197 212
230 295 266 256
253 310 284 255
217 287 252 257
149 221 246 246
35 100 130 127
0 0 0 0
0 0 0 0
0 0 0 0
0 0 0 0
0 0 0 0
0 0 0 0
3 0 0 0
9 0 0 0
21 12 4 0
50 58 68 95
116 131 136 131
176 215 244 232
252 305 293 259
249 330 309 264
197 267 257 237
131 180 196 199
0 19 30 39
0 0 0 0
0 0 0 0
0 0 0 0
0 0 0 0
0 0 0 0
0 0 0 0
2 0 0 0
16 2 0 0
26 20 9 2
54 70 84 113
127 138 136 136
182 232 251 230
252 332 319 282
238 330 308 265
192 262 256 261
118 180 179 170
0 7 5 0
0 0 0 0
0 0 0 0
0 0 0 0
0 0 0 0
0 0 0 0
0 0 0 0
2 0 0 0
12 2 0 0
29 25 21 18
72 98 124 121
139 164 167 160
206 254 254 250
254 302 277 257
233 306 264 255
177 252 243 240
88 152 136 128
0 0 0 0
0 0 0 0
0 0 0 0
0 0 0 0
0 0 0 0
0 0 0 0
0 0 0 0
6 0 0 0
11 2 0 0
27 20 13 9
71 88 118 126
137 162 169 165
211 262 246 258
252 329 306 261
227 309 270 250
174 254 247 241
84 148 134 135
0 0 0 0
0 0 0 0
0 0 0 0
0 0 0 0
0 0 0 0
0 0 0 0
0 0 0 0
4 0 0 0
18 7 0 0
34 31 31 26
86 120 132 125
141 175 179 178
221 284 253 255
253 330 304 268
218 298 265 247
155 228 248 253
47 119 135 133
0 0 0 0
0 0 0 0
0 0 0 0
0 0 0 0
0 0 0 0
0 0 0 0
0 0 0 0
13 2 0 0
25 18 12 4
54 65 80 106
124 128 141 134
183 232 251 236
252 329 313 277
242 306 278 251
196 253 254 253
129 175 179 174
0 7 4 0
0 0 0 0
0 0 0 0
0 0 0 0
0 0 0 0
0 0 0 0
0 0 0 0
1 0 0 0
15 4 0 0
23 14 3 0
53 62 71 94
114 137 133 134
169 216 242 237
252 331 324 297
248 316 300 259
201 260 255 254
130 173 175 163
0 8 6 0
0 0 0 0
0 0 0 0
0 0 0 0
0 0 0 0
0 0 0 0
0 0 0 0
0 0 0 0
11 0 0 0
28 18 14 4
65 74 99 132
127 142 137 142
182 235 256 238
253 315 302 267
248 304 276 254
195 259 253 252
124 167 160 142
0 2 0 0
0 0 0 0
0 0 0 0
0 0 0 0
0 0 0 0
0 0 0 0
0 0 0 0
4 0 0 0
14 2 0 0
28 23 21 20
73 95 121 118
133 160 161 156
197 252 258 246
251 304 287 257
234 311 270 258
175 257 255 251
92 165 143 127
0 0 0 0
0 0 0 0
0 0 0 0
0 0 0 0
0 0 0 0
0 0 0 0
0 0 0 0
9 0 0 0
10 2 0 0
32 30 27 29
75 101 125 127
138 172 184 193
210 262 253 260
255 299 274 255
216 282 258 245
167 233 255 247
65 131 139 130
0 0 0 0
0 0 0 0
0 0 0 0
0 0 0 0
0 0 0 0
0 0 0 0
0 0 0 0
7 0 0 0
20 11 4 0
41 43 44 50
107 133 130 136
162 204 222 248
247 299 274 274
257 304 274 265
207 267 260 249
127 195 206 211
2 43 70 101
0 0 0 0
0 0 0 0
0 0 0 0
0 0 0 0
0 0 0 0
0 0 0 0
2 0 0 0
9 1 0 0
21 13 6 1
51 59 71 92
112 133 128 141
173 213 237 252
250 305 288 256
248 324 300 256
191 262 255 260
125 189 200 202
0 31 53 75
0 0 0 0
0 0 0 0
0 0 0 0
0 0 0 0
0 0 0 0
0 0 0 0
1 0 0 0
11 2 0 0
31 25 19 20
73 98 125 121
135 159 160 145
200 257 254 261
252 328 309 269
229 313 280 249
180 250 255 241
87 145 130 132
0 0 0 0
0 0 0 0
0 0 0 0
0 0 0 0
0 0 0 0
0 0 0 0
0 0 0 0
12 0 0 0
19 3 0 0
37 31 29 26
93 121 131 129
144 181 187 189
220 280 260 259
251 304 274 254
216 280 255 248
160 224 254 253
45 113 138 123
0 0 0 0
0 0 0 0
0 0 0 0
0 0 0 0
0 0 0 0
0 0 0 0
3 0 0 0
10 0 0 0
23 13 7 1
56 64 77 103
120 147 133 134
173 227 247 255
255 313 296 267
249 310 283 251
199 262 251 255
127 200 209 216
0 30 47 65
0 0 0 0
0 0 0 0
0 0 0 0
0 0 0 0
0 0 0 0
0 0 0 0
7 0 0 0
12 3 0 0
31 28 27 29
79 105 132 128
135 167 177 170
212 263 257 245
252 298 279 258
225 291 257 257
160 242 255 245
62 127 135 132
0 0 0 0
0 0 0 0
0 0 0 0
0 0 0 0
0 0 0 0
0 0 0 0
0 0 0 0
7 0 0 0
18 11 2 0
38 40 41 45
102 126 138 135
165 204 230 252
245 316 302 265
255 314 296 257
198 259 252 250
133 192 207 223
17 57 91 129
0 0 0 0
0 0 0 0
0 0 0 0
0 0 0 0
0 0 0 0
0 0 0 0
4 0 0 0
11 0 0 0
29 20 16 11
68 90 117 124
132 151 149 134
198 251 256 248
252 311 291 256
233 314 278 246
173 251 259 252
99 172 159 137
0 0 0 0
0 0 0 0
0 0 0 0
0 0 0 0
0 0 0 0
0 0 0 0
0 0 0 0
6 0 0 0
11 2 0 0
29 23 15 6
72 88 112 131
129 153 145 135
202 250 257 248
252 305 284 260
232 303 269 257
171 249 255 250
90 151 137 132
0 0 0 0
0 0 0 0
0 0 0 0
0 0 0 0
0 0 0 0
0 0 0 0
0 0 0 0
2 0 0 0
17 9 0 0
34 35 37 39
83 114 123 121
138 179 186 192
215 275 259 257
252 322 303 262
215 289 258 252
158 234 255 232
54 128 127 127
0 0 0 0
0 0 0 0
0 0 0 0
0 0 0 0
0 0 0 0
0 0 0 0
1 0 0 0
8 0 0 0
18 7 0 0
44 48 52 64
101 127 132 130
166 207 231 253
246 300 274 272
257 303 272 259
208 265 254 260
132 202 219 242
7 56 95 129
0 0 0 0
0 0 0 0
0 0 0 0
0 0 0 0
0 0 0 0
0 0 0 0
0 0 0 0
13 2 0 0
27 20 13 10
67 87 113 122
135 153 158 149
197 255 246 255
251 314 290 259
231 309 270 256
176 254 244 240
96 170 162 141
0 1 0 0
0 0 0 0
0 0 0 0
0 0 0 0
0 0 0 0
0 0 0 0
0 0 0 0
7 0 0 0
11 2 0 0
27 20 13 6
73 92 121 131
139 164 170 168
204 259 258 255
252 308 288 256
231 303 261 256
179 254 242 245
93 163 153 136
0 0 0 0
0 0 0 0
0 0 0 0
0 0 0 0
0 0 0 0
0 0 0 0
0 0 0 0
6 0 0 0
11 1 0 0
30 25 17 9
76 100 130 128
129 180 187 193
211 271 258 253
254 304 283 253
224 296 256 244
165 244 246 240
71 133 147 127
0 0 0 0
0 0 0 0
0 0 0 0
0 0 0 0
0 0 0 0
0 0 0 0
0 0 0 0
12 0 0 0
22 15 4 0
49 55 64 84
109 133 135 141
168 210 231 247
252 323 308 272
251 312 297 254
201 264 257 234
132 180 192 190
9 42 64 87
0 0 0 0
0 0 0 0
0 0 0 0
0 0 0 0
0 0 0 0
0 0 0 0
1 0 0 0
15 2 0 0
23 19 12 4
54 64 80 105
123 130 140 133
183 232 251 238
252 312 299 263
242 298 265 250
195 254 259 245
127 173 179 176
0 4 6 0
0 0 0 0
0 0 0 0
0 0 0 0
0 0 0 0
0 0 0 0
0 0 0 0
5 0 0 0
15 4 0 0
25 15 7 1
59 75 91 121
122 133 145 129
184 234 255 238
251 333 318 289
249 316 298 256
198 261 248 259
130 183 186 183
0 11 15 9
0 0 0 0
0 0 0 0
0 0 0 0
0 0 0 0
0 0 0 0
0 0 0 0
7 0 0 0
16 5 0 0
32 27 20 17
71 99 126 124
133 171 178 178
215 263 255 260
255 305 281 252
229 302 265 253
169 247 244 248
75 136 133 127
0 0 0 0
0 0 0 0
0 0 0 0
0 0 0 0
0 0 0 0
0 0 0 0
0 0 0 0
12 1 0 0
21 11 3 0
41 43 46 53
106 130 130 127
165 211 234 251
248 301 281 250
254 314 288 252
207 272 255 235
128 201 220 234
7 56 98 134
0 0 0 0
0 0 0 0
0 0 0 0
0 0 0 0
0 0 0 0
0 0 0 0
3 0 0 0
8 0 0 0
22 11 3 0
46 52 59 74
108 134 133 127
175 219 241 248
251 327 308 267
251 339 323 277
200 271 256 241
128 199 214 220
0 39 66 97
0 0 0 0
0 0 0 0
0 0 0 0
0 0 0 0
0 0 0 0
0 0 0 0
3 0 0 0
16 2 0 0
27 19 9 2
57 69 84 110
128 141 138 136
187 244 256 244
252 316 304 265
247 304 277 252
195 257 253 250
124 168 166 157
0 1 0 0
0 0 0 0
0 0 0 0
0 0 0 0
0 0 0 0
0 0 0 0
0 0 0 0
5 0 0 0
16 2 0 0
30 25 21 21
70 90 119 123
130 159 164 161
203 253 254 262
251 327 303 266
232 312 278 248
179 254 249 250
92 163 144 131
0 0 0 0
0 0 0 0
0 0 0 0
0 0 0 0
0 0 0 0
0 0 0 0
0 0 0 0
2 0 0 0
15 4 0 0
27 26 16 13
74 101 127 123
132 184 196 202
215 279 253 260
254 304 276 259
222 294 256 254
160 237 257 237
57 122 133 135
0 0 0 0
0 0 0 0
0 0 0 0
0 0 0 0
0 0 0 0
0 0 0 0
0 0 0 0
8 0 0 0
21 12 2 0
42 43 48 54
103 133 131 131
166 210 239 227
249 303 283 263
255 313 290 255
203 260 249 255
132 191 201 213
16 50 81 121
0 0 0 0
0 0 0 0
0 0 0 0
0 0 0 0
0 0 0 0
0 0 0 0
3 0 0 0
13 2 0 0
30 24 21 18
68 88 111 127
130 160 158 157
204 254 253 261
251 334 314 283
233 318 291 255
170 254 248 241
89 161 153 138
0 0 0 0
0 0 0 0
0 0 0 0
0 0 0 0
0 0 0 0
0 0 0 0
0 0 0 0
5 0 0 0
20 8 1 0
32 31 28 26
83 116 121 135
143 185 195 206
215 276 254 252
252 326 296 263
220 302 267 252
156 236 258 241
56 125 138 127
0 0 0 0
0 0 0 0
0 0 0 0
0 0 0 0
0 0 0 0
0 0 0 0
0 0 0 0
11 0 0 0
17 7 1 0
46 50 57 73
104 132 129 135
166 214 234 250
243 316 299 264
246 329 310 263
196 267 258 259
138 193 209 227
7 45 75 117
0 0 0 0
0 0 0 0
0 0 0 0
0 0 0 0
0 0 0 0
0 0 0 0
2 0 0 0
13 1 0 0
29 22 16 12
73 90 119 129
136 159 159 151
200 250 257 254
255 299 274 264
239 311 271 258
186 251 254 237
99 164 155 136
0 0 0 0
0 0 0 0
0 0 0 0
0 0 0 0
0 0 0 0
0 0 0 0
0 0 0 0
5 0 0 0
15 1 0 0
35 31 29 31
73 101 132 126
130 185 197 206
206 270 262 253
253 331 310 269
222 304 267 248
164 244 261 234
63 129 131 127
0 0 0 0
0 0 0 0
0 0 0 0
0 0 0 0
0 0 0 0
0 0 0 0
0 0 0 0
8 0 0 0
15 5 0 0
40 42 44 52
100 129 130 136
160 209 232 249
241 295 272 263
255 303 274 258
205 264 252 257
130 203 216 241
20 71 120 129
0 0 0 0
0 0 0 0
0 0 0 0
0 0 0 0
0 0 0 0
0 0 0 0
5 0 0 0
11 1 0 0
30 22 20 18
65 84 110 115
133 150 147 133
195 253 245 242
251 310 294 256
235 314 279 252
179 253 246 251
91 161 141 129
0 0 0 0
0 0 0 0
0 0 0 0
0 0 0 0
0 0 0 0
0 0 0 0
0 0 0 0
7 0 0 0
13 1 0 0
35 29 29 29
84 113 136 127
143 182 196 207
217 277 256 248
256 308 290 253
214 289 262 254
159 228 253 256
57 125 130 128
0 0 0 0
0 0 0 0
0 0 0 0
0 0 0 0
0 0 0 0
0 0 0 0
5 0 0 0
14 2 0 0
19 7 1 0
49 50 58 73
103 130 122 130
166 211 230 246
248 304 282 256
255 314 288 252
205 268 255 257
132 195 207 219
13 55 86 124
0 0 0 0
0 0 0 0
0 0 0 0
0 0 0 0
0 0 0 0
0 0 0 0
7 0 0 0
10 1 0 0
25 13 6 1
60 75 95 121
125 134 151 133
192 241 253 255
252 310 288 260
246 303 267 261
195 254 257 254
127 167 163 149
0 0 0 0
0 0 0 0
0 0 0 0
0 0 0 0
0 0 0 0
0 0 0 0
0 0 0 0
4 0 0 0
10 1 0 0
20 13 3 0
59 72 87 120
125 133 144 132
189 242 249 250
252 335 313 279
239 333 307 260
194 263 256 254
124 164 163 152
0 0 0 0
0 0 0 0
0 0 0 0
0 0 0 0
0 0 0 0
0 0 0 0
0 0 0 0
5 0 0 0
12 0 0 0
32 23 20 17
72 98 125 120
134 163 165 160
209 255 256 252
253 331 308 265
230 314 281 251
177 255 249 251
95 161 150 138
0 0 0 0
0 0 0 0
0 0 0 0
0 0 0 0
0 0 0 0
0 0 0 0
0 0 0 0
5 0 0 0
17 9 0 0
36 34 37 39
84 118 128 128
139 179 188 190
219 283 253 254
251 303 274 258
217 284 255 258
160 227 248 255
56 129 136 128
0 0 0 0
0 0 0 0
0 0 0 0
0 0 0 0
0 0 0 0
0 0 0 0
5 0 0 0
13 2 0 0
23 17 12 2
53 60 73 95
119 129 135 149
182 223 249 242
252 331 318 282
250 338 327 287
187 259 263 241
128 183 195 202
0 17 31 35
0 0 0 0
0 0 0 0
0 0 0 0
0 0 0 0
0 0 0 0
0 0 0 0
6 0 0 0
17 3 0 0
31 30 28 29
69 91 119 128
136 162 164 156
201 255 256 245
252 308 290 254
230 309 271 254
172 249 257 233
89 153 142 136
0 0 0 0
0 0 0 0
0 0 0 0
0 0 0 0
0 0 0 0
0 0 0 0
0 0 0 0
5 0 0 0
17 9 0 0
38 37 41 44
88 119 138 128
147 185 195 209
215 279 254 257
247 325 302 258
216 292 256 249
158 233 251 249
49 121 134 131
0 0 0 0
0 0 0 0
0 0 0 0
0 0 0 0
0 0 0 0
0 0 0 0
1 0 0 0
15 1 0 0
24 20 12 4
54 62 80 106
121 144 130 131
179 236 256 248
253 309 294 259
242 302 269 252
198 257 248 244
128 174 181 169
0 7 7 0
0 0 0 0
0 0 0 0
0 0 0 0
0 0 0 0
0 0 0 0
0 0 0 0
2 0 0 0
10 0 0 0
25 18 12 6
55 68 83 115
127 139 137 136
181 232 250 256
253 312 300 261
240 321 291 260
193 262 250 256
124 176 178 167
0 3 4 0
0 0 0 0
0 0 0 0
0 0 0 0
0 0 0 0
0 0 0 0
0 0 0 0
5 0 0 0
11 1 0 0
23 14 8 1
54 66 79 99
120 148 133 135
172 228 251 253
250 311 295 266
246 303 275 253
194 258 253 256
128 171 171 159
0 9 6 0
0 0 0 0
0 0 0 0
0 0 0 0
0 0 0 0
0 0 0 0
0 0 0 0
4 0 0 0
11 1 0 0
24 12 4 0
58 69 86 117
119 146 132 132
180 236 255 240
252 333 323 292
244 309 289 259
198 261 247 256
129 175 178 168
0 10 12 4
0 0 0 0
0 0 0 0
0 0 0 0
0 0 0 0
0 0 0 0
0 0 0 0
5 0 0 0
16 3 0 0
37 31 33 30
76 102 127 126
130 185 194 202
207 266 265 251
250 309 286 257
238 309 268 248
172 250 255 228
76 133 147 136
0 0 0 0
0 0 0 0
0 0 0 0
0 0 0 0
0 0 0 0
0 0 0 0
1 0 0 0
13 0 0 0
26 15 7 0
44 48 53 63
108 133 133 128
164 208 227 243
249 322 309 271
251 332 317 267
203 282 253 252
130 199 211 228
9 53 84 127
0 0 0 0
0 0 0 0
0 0 0 0
0 0 0 0
0 0 0 0
0 0 0 0
2 0 0 0
12 3 0 0
25 20 16 11
69 87 117 129
135 157 160 156
198 252 259 262
252 313 295 267
238 318 285 259
185 255 247 255
108 169 161 135
0 0 0 0
0 0 0 0
0 0 0 0
0 0 0 0
0 0 0 0
0 0 0 0
0 0 0 0
1 0 0 0
15 4 0 0
33 24 21 14
81 106 125 129
144 181 190 204
221 282 253 254
249 326 294 253
217 294 255 257
164 242 241 241
53 124 133 128
0 0 0 0
0 0 0 0
0 0 0 0
0 0 0 0
0 0 0 0
0 0 0 0
1 0 0 0
7 0 0 0
14 3 0 0
38 36 34 35
92 126 125 124
148 189 201 212
236 305 272 265
253 308 277 256
206 267 260 256
136 188 205 220
14 53 89 128
0 0 0 0
0 0 0 0
0 0 0 0
0 0 0 0
0 0 0 0
0 0 0 0
1 0 0 0
11 3 0 0
25 17 8 4
54 59 71 90
119 139 140 137
169 216 242 241
253 332 323 301
245 331 323 287
190 263 257 244
133 183 196 203
0 15 26 32
0 0 0 0
0 0 0 0
0 0 0 0
0 0 0 0
0 0 0 0
0 0 0 0
6 0 0 0
20 4 1 0
31 24 14 13
70 91 115 126
130 160 159 150
207 255 256 260
252 308 283 252
228 299 262 245
178 251 249 247
89 152 137 138
0 0 0 0
0 0 0 0
0 0 0 0
0 0 0 0
0 0 0 0
0 0 0 0
0 0 0 0
7 0 0 0
20 8 1 0
35 38 39 46
88 118 129 130
141 173 179 183
215 273 251 245
248 321 295 252
214 287 254 262
152 227 249 253
47 117 135 127
0 0 0 0
0 0 0 0
0 0 0 0
0 0 0 0
0 0 0 0
0 0 0 0
0 0 0 0
5 0 0 0
10 2 0 0
39 39 42 52
95 124 131 129
159 201 222 245
246 297 273 249
257 310 285 255
213 273 249 240
135 191 203 214
12 54 85 118
0 0 0 0
0 0 0 0
0 0 0 0
0 0 0 0
0 0 0 0
0 0 0 0
1 0 0 0
13 1 0 0
22 16 8 3
55 70 86 115
125 132 151 134
177 220 242 247
251 307 287 256
247 304 270 257
197 255 258 252
130 183 185 183
0 8 9 2
0 0 0 0
0 0 0 0
0 0 0 0
0 0 0 0
0 0 0 0
0 0 0 0
5 0 0 0
15 3 0 0
27 21 16 12
69 90 119 130
135 155 160 156
193 254 254 257
252 310 289 256
238 317 283 253
178 253 243 254
106 182 173 158
0 1 0 0
0 0 0 0
0 0 0 0
0 0 0 0
0 0 0 0
0 0 0 0
0 0 0 0
7 0 0 0
18 8 0 0
35 36 34 39
85 117 127 133
136 175 182 187
213 270 261 257
247 321 292 257
216 294 261 252
157 235 252 228
55 122 133 132
0 0 0 0
0 0 0 0
0 0 0 0
0 0 0 0
0 0 0 0
0 0 0 0
0 0 0 0
8 0 0 0
19 7 0 0
41 44 48 60
95 122 136 126
154 189 203 216
243 285 257 261
252 302 273 261
213 275 247 254
142 202 221 245
25 75 118 132
0 0 0 0
0 0 0 0
0 0 0 0
0 0 0 0
0 0 0 0
0 0 0 0
2 0 0 0
12 3 0 0
26 20 16 11
68 87 115
0 0 0 0
2 0 0 0
16 6 0 0
34 32 27 31
89 122 130 131
141 179 186 196
223 286 258 254
246 324 294 252
213 290 257 250
146 214 239 248
33 93 134 131
0 0 0 0
0 0 0 0
0 0 0 0
0 0 0 0
0 0 0 0
0 0 0 0
0 0 0 0
10 0 0 0
24 13 5 0
54 63 76 102
117 137 138 133
176 230 247 256
251 315 297 265
249 326 304 254
192 264 254 239
132 192 205 212
0 25 43 60
0 0 0 0
0 0 0 0
0 0 0 0
0 0 0 0
0 0 0 0
0 0 0 0
2 0 0 0
13 4 0 0
29 28 26 28
76 102 131 127
136 171 183 183
211 263 261 247
250 323 300 259
221 301 267 254
160 244 244 244
69 135 148 135
0 0 0 0
0 0 0 0
0 0 0 0
0 0 0 0
0 0 0 0
0 0 0 0
0 0 0 0
7 0 0 0
21 9 2 0
37 38 38 40
91 125 125 122
145 186 191 202
228 295 259 256
253 310 288 255
214 284 258 259
147 216 241 239
31 96 131 130
0 0 0 0
0 0 0 0
0 0 0 0
0 0 0 0
0 0 0 0
0 0 0 0
1 0 0 0
12 2 0 0
17 7 1 0
46 54 61 77
109 137 134 137
171 218 239 228
255 305 288 252
254 305 279 255
200 263 255 240
134 191 202 213
1 36 58 86
0 0 0 0
0 0 0 0
0 0 0 0
0 0 0 0
0 0 0 0
0 0 0 0
2 0 0 0
9 0 0 0
14 8 0 0
40 43 43 51
101 129 128 130
169 217 243 236
254 303 292 260
249 310 282 253
204 267 258 255
132 182 194 202
1 22 35 47
0 0 0 0
0 0 0 0
0 0 0 0
0 0 0 0
0 0 0 0
0 0 0 0
4 0 0 0
16 2 0 0
29 22 16 12
71 96 120 127
132 159 159 153
201 251 250 253
253 309 284 261
240 289 258 250
177 244 252 262
102 166 159 141
0 0 0 0
0 0 0 0
0 0 0 0
0 0 0 0
0 0 0 0
0 0 0 0
0 0 0 0
8 0 0 0
12 3 0 0
32 27 25 20
83 115 120 131
141 184 191 202
222 286 257 259
251 306 279 255
222 289 257 253
155 228 249 252
53 121 133 129
0 0 0 0
0 0 0 0
0 0 0 0
0 0 0 0
0 0 0 0
0 0 0 0
2 0 0 0
5 0 0 0
10 1 0 0
39 42 43 54
100 129 138 127
162 204 227 252
248 305 283 255
256 312 289 253
204 263 256 257
131 205 222 240
8 58 97 128
0 0 0 0
0 0 0 0
0 0 0 0
0 0 0 0
0 0 0 0
0 0 0 0
0 0 0 0
8 0 0 0
21 11 3 0
47 50 57 68
116 128 137 131
179 221 249 242
253 311 302 267
253 331 316 274
199 268 265 240
127 197 210 214
0 38 64 95
0 0 0 0
0 0 0 0
0 0 0 0
0 0 0 0
0 0 0 0
0 0 0 0
1 0 0 0
14 1 0 0
27 24 21 19
67 86 114 124
135 155 159 157
203 254 249 253
251 304 279 250
231 300 265 253
181 255 245 254
98 168 153 132
0 0 0 0
0 0 0 0
0 0 0 0
0 0 0 0
0 0 0 0
0 0 0 0
0 0 0 0
3 0 0 0
16 5 0 0
32 27 24 19
81 110 133 121
139 178 186 191
215 272 259 261
252 326 308 264
224 306 270 251
161 243 255 242
53 126 127 130
0 0 0 0
0 0 0 0
0 0 0 0
0 0 0 0
0 0 0 0
0 0 0 0
2 0 0 0
7 0 0 0
18 9 0 0
41 46 49 64
93 123 136 126
151 190 204 217
239 310 279 255
253 316 292 253
209 275 253 242
143 205 229 250
26 79 129 131
0 0 0 0
0 0 0 0
0 0 0 0
0 0 0 0
0 0 0 0
0 0 0 0
1 0 0 0
12 3 0 0
19 11 1 0
57 68 82 113
126 135 147 135
183 232 251 235
254 334 319 289
247 312 291 261
198 263 248 258
123 174 172 161
0 10 5 0
0 0 0 0
0 0 0 0
0 0 0 0
0 0 0 0
0 0 0 0
0 0 0 0
4 0 0 0
16 4 0 0
31 26 27 27
74 101 130 127
130 168 172 170
207 261 257 250
253 311 294 256
229 306 267 252
171 247 250 254
76 133 143 132
0 0 0 0
0 0 0 0
0 0 0 0
0 0 0 0
0 0 0 0
0 0 0 0
0 0 0 0
10 0 0 0
11 2 0 0
33 31 25 29
92 124 131 131
145 185 194 204
231 300 262 254
253 304 272 260
212 272 253 250
149 212 239 226
35 92 135 133
0 0 0 0
0 0 0 0
0 0 0 0
0 0 0 0
0 0 0 0
0 0 0 0
3 0 0 0
10 0 0 0
22 11 6 1
53 66 79 106
121 141 129 134
180 234 253 238
254 317 304 269
247 326 303 257
184 256 253 254
123 172 171 167
0 11 10 3
0 0 0 0
0 0 0 0
0 0 0 0
0 0 0 0
0 0 0 0
0 0 0 0
1 0 0 0
15 1 0 0
31 26 24 22
75 100 132 125
133 178 186 194
213 271 268 260
256 302 285 251
228 295 253 249
175 249 257 238
79 135 153 132
0 0 0 0
0 0 0 0
0 0 0 0
0 0 0 0
0 0 0 0
0 0 0 0
0 0 0 0
6 0 0 0
19 6 1 0
38 34 33 30
92 123 134 127
146 182 193 205
227 288 261 264
252 310 281 253
220 285 252 258
149 216 237 259
38 101 131 127
0 0 0 0
0 0 0 0
0 0 0 0
0 0 0 0
0 0 0 0
0 0 0 0
5 0 0 0
17 1 0 0
28 21 15 8
60 73 95 121
131 147 135 156
191 246 247 242
254 333 328 294
239 335 321 277
187 258 265 243
123 197 208 216
0 20 34 44
0 0 0 0
0 0 0 0
0 0 0 0
0 0 0 0
0 0 0 0
0 0 0 0
10 0 0 0
12 2 0 0
39 32 30 28
91 123 131 132
144 180 188 196
227 287 260 258
251 309 280 254
216 287 257 255
152 220 248 248
40 106 134 134
0 0 0 0
0 0 0 0
0 0 0 0
0 0 0 0
0 0 0 0
0 0 0 0
1 0 0 0
13 3 0 0
23 18 13 5
54 67 84 113
127 138 132 137
192 240 256 246
253 310 296 258
248 306 275 251
198 257 255 253
127 172 170 163
0 0 0 0
0 0 0 0
0 0 0 0
0 0 0 0
0 0 0 0
0 0 0 0
0 0 0 0
4 0 0 0
8 0 0 0
19 8 1 0
47 48 53 60
115 128 133 138
172 214 234 252
252 306 291 261
248 322 298 260
190 259 248 258
131 197 206 225
4 36 57 86
0 0 0 0
0 0 0 0
0 0 0 0
0 0 0 0
0 0 0 0
0 0 0 0
2 0 0 0
13 3 0 0
29 23 20 16
71 95 124 118
132 161 164 157
205 257 259 251
257 302 280 261
238 314 274 249
182 252 244 254
93 161 140 130
0 0 0 0
0 0 0 0
0 0 0 0
0 0 0 0
0 0 0 0
0 0 0 0
0 0 0 0
8 0 0 0
10 3 0 0
34 32 30 31
78 108 129 126
141 178 186 194
217 279 257 254
255 305 279 254
220 293 255 254
164 241 261 244
60 131 148 129
0 0 0 0
0 0 0 0
0 0 0 0
0 0 0 0
0 0 0 0
0 0 0 0
0 0 0 0
14 2 0 0
15 8 0 0
36 40 38 46
96 127 133 128
152 187 196 211
244 290 263 256
251 303 276 257
208 266 255 259
133 191 202 214
12 55 81 117
0 0 0 0
0 0 0 0
0 0 0 0
0 0 0 0
0 0 0 0
0 0 0 0
5 0 0 0
16 2 0 0
28 23 17 14
72 92 116 129
132 158 157 147
195 255 244 254
251 333 313 278
238 326 304 258
187 254 254 253
106 175 167 148
0 0 0 0
0 0 0 0
0 0 0 0
0 0 0 0
0 0 0 0
0 0 0 0
0 0 0 0
7 0 0 0
14 0 0 0
32 27 21 18
80 108 128 130
140 181 185 194
218 283 251 254
255 308 280 255
219 290 255 253
155 228 245 250
52 126 133 127
0 0 0 0
0 0 0 0
0 0 0 0
0 0 0 0
0 0 0 0
0 0 0 0
0 0 0 0
9 0 0 0
14 4 0 0
41 44 46 57
102 131 133 135
164 207 231 247
246 317 304 263
253 315 299 260
207 273 251 245
129 202 222 238
7 57 104 132
0 0 0 0
0 0 0 0
0 0 0 0
0 0 0 0
0 0 0 0
0 0 0 0
5 0 0 0
11 0 0 0
24 13 3 0
53 61 69 92
117 137 133 134
178 229 254 230
253 306 288 258
250 310 279 253
201 260 249 255
126 179 179 173
0 14 16 12
0 0 0 0
0 0 0 0
0 0 0 0
0 0 0 0
0 0 0 0
0 0 0 0
8 0 0 0
10 1 0 0
30 26 24 26
77 105 127 127
139 172 177 179
212 260 257 257
251 318 292 259
222 303 267 254
164 242 258 252
60 129 128 134
0 0 0 0
0 0 0 0
0 0 0 0
0 0 0 0
0 0 0 0
0 0 0 0
0 0 0 0
9 0 0 0
22 10 1 0
46 53 58 74
106 131 132 130
167 216 239 236
248 309 289 252
258 316 295 261
208 272 250 245
132 209 231 249
6 55 97 128
0 0 0 0
0 0 0 0
0 0 0 0
0 0 0 0
0 0 0 0
0 0 0 0
1 0 0 0
11 0 0 0
26 18 15 7
60 76 97 127
126 135 127 132
187 242 258 253
253 311 286 261
249 305 273 255
197 254 248 255
127 171 167 153
0 1 0 0
0 0 0 0
0 0 0 0
0 0 0 0
0 0 0 0
0 0 0 0
0 0 0 0
4 0 0 0
16 2 0 0
31 25 21 21
71 89 116 127
129 153 146 131
197 256 243 245
252 311 288 262
235 314 276 255
184 251 254 241
93 152 140 131
0 0 0 0
0 0 0 0
0 0 0 0
0 0 0 0
0 0 0 0
0 0 0 0
0 0 0 0
6 0 0 0
13 1 0 0
32 26 20 14
75 103 125 125
136 168 172 171
215 270 252 252
251 322 299 255
220 296 258 243
162 235 255 229
62 131 147 135
0 0 0 0
0 0 0 0
0 0 0 0
0 0 0 0
0 0 0 0
0 0 0 0
1 0 0 0
16 1 0 0
22 15 9 2
50 60 70 95
108 133 132 139
173 217 240 231
253 300 284 250
253 331 307 266
194 266 263 244
135 186 199 211
0 27 45 63
0 0 0 0
0 0 0 0
0 0 0 0
0 0 0 0
0 0 0 0
0 0 0 0
4 0 0 0
13 3 0 0
28 21 17 16
72 92 118 135
133 158 157 149
201 254 254 237
254 317 299 268
237 315 281 250
176 257 247 249
100 171 169 152
0 0 0 0
0 0 0 0
0 0 0 0
0 0 0 0
0 0 0 0
0 0 0 0
0 0 0 0
2 0 0 0
16 6 0 0
32 27 26 23
84 114 131 124
138 176 184 186
219 278 249 248
253 300 265 263
215 282 253 250
158 233 254 237
56 129 130 131
0 0 0 0
0 0 0 0
0 0 0 0
0 0 0 0
0 0 0 0
0 0 0 0
4 0 0 0
12 1 0 0
22 14 5 1
51 54 65 78
118 132 132 129
171 214 232 249
252 327 314 278
254 340 331 292
204 277 255 252
138 193 213 225
0 31 52 77
0 0 0 0
0 0 0 0
0 0 0 0
0 0 0 0
0 0 0 0
0 0 0 0
5 0 0 0
16 3 0 0
27 25 22 18
66 84 114 125
132 150 151 136
198 252 253 250
251 311 290 257
237 310 270 254
177 253 242 238
101 175 170 153
0 0 0 0
0 0 0 0
0 0 0 0
0 0 0 0
0 0 0 0
0 0 0 0
0 0 0 0
9 0 0 0
14 2 0 0
33 27 21 18
83 115 120 131
144 184 194 205
217 279 250 255
249 325 295 255
219 295 254 257
159 235 252 234
55 127 131 132
0 0 0 0
0 0 0 0
0 0 0 0
0 0 0 0
0 0 0 0
0 0 0 0
1 0 0 0
14 1 0 0
19 8 1 0
47 46 50 57
106 129 126 134
167 213 236 250
253 303 289 257
251 326 304 257
200 273 251 245
133 185 194 201
6 39 62 87
0 0 0 0
0 0 0 0
0 0 0 0
0 0 0 0
0 0 0 0
0 0 0 0
0 0 0 0
11 0 0 0
24 18 9 3
58 68 86 118
119 146 134 134
178 230 251 253
252 315 303 269
247 305 276 252
195 258 261 249
129 181 186 182
0 14 22 21
0 0 0 0
0 0 0 0
0 0 0 0
0 0 0 0
0 0 0 0
0 0 0 0
10 0 0 0
16 1 0 0
39 34 34 38
86 117 125 124
147 192 208 223
228 295 263 256
254 314 288 253
222 297 255 253
158 231 246 253
52 126 131 138
0 0 0 0
0 0 0 0
0 0 0 0
0 0 0 0
0 0 0 0
0 0 0 0
1 0 0 0
13 0 0 0
24 15 9 4
55 65 78 109
119 140 135 131
178 233 252 239
253 314 302 265
249 327 305 261
193 264 254 245
129 193 206 217
0 28 44 64
0 0 0 0
0 0 0 0
0 0 0 0
0 0 0 0
0 0 0 0
0 0 0 0
7 0 0 0
17 3 0 0
37 31 30 34
78 107 128 131
137 172 178 181
213 266 259 253
252 303 282 249
228 293 260 256
171 248 254 242
72 137 132 135
0 0 0 0
0 0 0 0
0 0 0 0
0 0 0 0
0 0 0 0
0 0 0 0
1 0 0 0
8 0 0 0
21 9 3 0
43 43 44 54
95 129 127 136
152 197 218 240
230 303 270 263
253 314 290 253
212 282 259 243
150 217 250 241
34 102 139 136
0 0 0 0
0 0 0 0
0 0 0 0
0 0 0 0
0 0 0 0
0 0 0 0
0 0 0 0
9 0 0 0
16 6 0 0
48 53 61 76
106 127 130 125
170 213 238 228
253 331 318 287
254 316 302 266
199 263 261 241
127 195 203 214
0 35 53 77
0 0 0 0
0 0 0 0
0 0 0 0
0 0 0 0
0 0 0 0
0 0 0 0
1 0 0 0
14 1 0 0
27 22 19 16
73 91 118 130
138 160 159 149
199 252 256 254
254 300 277 261
235 309 264 254
176 251 254 247
100 167 152 130
0 0 0 0
0 0 0 0
0 0 0 0
0 0 0 0
0 0 0 0
0 0 0 0
0 0 0 0
2 0 0 0
16 6 0 0
27 27 24 22
81 111 131 121
143 182 190 199
217 283 253 258
254 300 271 263
216 283 259 246
160 232 254 237
53 121 137 131
0 0 0 0
0 0 0 0
0 0 0 0
0 0 0 0
0 0 0 0
0 0 0 0
6 0 0 0
16 1 0 0
24 20 12 4
54 62 78 102
125 130 143 132
176 216 244 244
252 327 317 285
248 312 295 251
200 263 251 235
126 184 187 180
0 21 23 27
0 0 0 0
0 0 0 0
0 0 0 0
0 0 0 0
0 0 0 0
0 0 0 0
6 0 0 0
15 1 0 0
35 31 31 35
78 103 125 130
135 168 169 163
215 268 258 248
253 294 266 263
222 286 256 262
161 231 257 234
66 128 147 136
0 0 0 0
0 0 0 0
0 0 0 0
0 0 0 0
0 0 0 0
0 0 0 0
0 0 0 0
10 0 0 0
26 15 5 0
45 48 56 67
104 128 124 132
170 218 238 234
250 311 290 259
257 315 298 254
204 268 258 240
129 181 189 194
5 38 59 80
0 0 0 0
0 0 0 0
0 0 0 0
0 0 0 0
0 0 0 0
0 0 0 0
1 0 0 0
9 2 0 0
16 7 0 0
45 49 58 72
104 132 124 134
166 210 226 250
252 301 281 254
250 327 297 258
202 272 249 239
139 192 208 220
6 41 70 105
0 0 0 0
0 0 0 0
0 0 0 0
0 0 0 0
0 0 0 0
0 0 0 0
1 0 0 0
16 1 0 0
33 24 20 18
72 98 125 121
136 164 167 165
200 251 254 252
255 309 297 261
238 316 283 256
176 254 246 247
93 162 157 133
0 0 0 0
0 0 0 0
0 0 0 0
0 0 0 0
0 0 0 0
0 0 0 0
0 0 0 0
2 0 0 0
19 2 0 0
38 33 32 35
77 108 128 129
141 178 186 195
215 276 262 256
254 303 284 249
227 293 254 251
165 243 241 230
58 129 134 132
0 0 0 0
0 0 0 0
0 0 0 0
0 0 0 0
0 0 0 0
0 0 0 0
0 0 0 0
6 0 0 0
22 9 2 0
39 41 40 43
102 126 137 129
164 204 228 246
246 296 273 265
252 305 274 260
211 267 257 261
135 186 201 212
10 50 79 116
0 0 0 0
0 0 0 0
0 0 0 0
0 0 0 0
0 0 0 0
0 0 0 0
3 0 0 0
9 0 0 0
22 13 5 1
51 62 73 99
120 130 131 133
175 223 244 243
251 314 302 269
251 330 314 265
199 267 261 238
131 201 218 231
0 31 49 77
0 0 0 0
0 0 0 0
0 0 0 0
0 0 0 0
0 0 0 0
0 0 0 0
4 0 0 0
13 3 0 0
29 28 19 20
68 91 115 127
133 154 149 135
201 253 250 257
255 316 296 266
237 316 282 253
182 255 250 253
88 160 137 133
0 0 0 0
0 0 0 0
0 0 0 0
0 0 0 0
0 0 0 0
0 0 0 0
0 0 0 0
4 0 0 0
10 1 0 0
33 30 30 30
74 103 125 125
135 170 178 181
216 267 262 255
253 295 270 264
215 280 258 254
160 227 254 251
58 130 138 136
0 0 0 0
0 0 0 0
0 0 0 0
0 0 0 0
0 0 0 0
0 0 0 0
1 0 0 0
8 0 0 0
19 7 0 0
41 45 51 64
95 123 131 128
154 192 205 226
239 309 277 255
255 311 283 261
213 284 262 251
145 210 239 226
28 78 129 128
0 0 0 0
0 0 0 0
0 0 0 0
0 0 0 0
0 0 0 0
0 0 0 0
1 0 0 0
12 1 0 0
27 21 14 11
70 91 119 131
136 159 166 164
202 253 253 257
255 304 278 259
234 310 269 256
176 255 245 244
97 167 161 136
0 0 0 0
0 0 0 0
0 0 0 0
0 0 0 0
0 0 0 0
0 0 0 0
0 0 0 0
7 0 0 0
20 8 1 0
34 32 34 34
78 103 125 129
141 173 181 186
218 272 257 253
256 300 279 261
222 289 251 259
168 245 245 238
64 130 137 126
0 0 0 0
0 0 0 0
0 0 0 0
0 0 0 0
0 0 0 0
0 0 0 0
0 0 0 0
16 0 0 0
21 14 5 0
50 57 69 89
111 136 138 135
174 218 245 241
250 325 312 280
251 316 303 263
205 267 262 248
132 185 200 206
3 32 53 76
0 0 0 0
0 0 0 0
0 0 0 0
0 0 0 0
0 0 0 0
0 0 0 0
1 0 0 0
13 1 0 0
24 13 7 2
53 60 70 90
120 131 135 144
176 216 240 237
253 311 300 265
252 327 309 266
195 262 256 239
128 175 176 172
0 18 22 20
0 0 0 0
0 0 0 0
0 0 0 0
0 0 0 0
0 0 0 0
0 0 0 0
1 0 0 0
16 1 0 0
26 19 10 2
65 82 104 125
135 154 156 148
199 255 247 256
254 309 285 254
231 309 264 255
175 251 259 242
97 168 163 141
0 1 0 0
0 0 0 0
0 0 0 0
0 0 0 0
0 0 0 0
0 0 0 0
0 0 0 0
2 0 0 0
19 4 0 0
27 23 14 9
75 100 126 120
132 187 196 204
210 272 253 260
254 301 283 256
222 295 261 253
167 246 248 240
76 136 135 128
0 0 0 0
0 0 0 0
0 0 0 0
0 0 0 0
0 0 0 0
0 0 0 0
1 0 0 0
12 0 0 0
15 7 0 0
41 42 44 52
93 126 130 128
152 195 212 231
236 309 280 257
256 316 291 255
215 285 250 253
146 213 231 247
31 88 130 131
0 0 0 0
0 0 0 0
0 0 0 0
0 0 0 0
0 0 0 0
0 0 0 0
5 0 0 0
9 0 0 0
20 8 0 0
44 44 45 51
112 128 129 134
169 216 233 251
255 307 291 261
250 332 314 274
202 275 257 241
131 185 202 198
6 35 60 82
0 0 0 0
0 0 0 0
0 0 0 0
0 0 0 0
0 0 0 0
0 0 0 0
1 0 0 0
11 0 0 0
21 11 1 36 37
87 132
140 185 197 207
219 284 261 251
252 327 304 265
224 304 267 252
166 246 243 233
53 123 129 131
0 0 0 0
0 0 0 0
0 0 0 0
0 0 0 0
0 0 0 0
0 0 0 0
1 0 0 0
11 0 0 0
22 14 5 0
47 53 59 77
113 134 129 137
175 223 247 240
255 309 298 267
255 306 288 253
199 263 248 261
133 188 198 211
0 31 53 76
0 0 0 0
0 0 0 0
0 0 0 0
0 0 0 0
0 0 0 0
0 0 0 0
3 0 0 0
9 0 0 0
19 7 0 0
49 56 63 81
112 134 128 142
173 214 236 251
254 304 289 258
254 303 278 255
197 258 249 255
126 196 204 201
0 35 57 77
0 0 0 0
0 0 0 0
0 0 0 0
0 0 0 0
0 0 0 0
0 0 0 0
1 0 0 0
16 1 0 0
29 24 18 16
72 96 121 118
132 161 163 155
198 259 246 259
254 315 295 266
239 318 288 253
178 252 244 242
100 172 159 134
0 0 0 0
0 0 0 0
0 0 0 0
0 0 0 0
0 0 0 0
0 0 0 0
0 0 0 0
6 0 0 0
17 4 0 0
38 35 35 38
88 121 133 128
148 194 209 220
222 289 257 268
255 310 294 257
223 294 257 242
159 236 257 232
55 129 131 130
0 0 0 0
0 0 0 0
0 0 0 0
0 0 0 0
0 0 0 0
0 0 0 0
1 0 0 0
8 0 0 0
21 11 3 0
43 46 50 59
109 133 130 129
173 223 248 249
249 326 314 284
251 333 323 281
198 270 262 254
137 192 204 213
6 39 62 90
0 0 0 0
0 0 0 0
0 0 0 0
0 0 0 0
0 0 0 0
0 0 0 0
4 0 0 0
15 3 0 0
27 21 16 9
60 71 91 118
131 143 136 141
192 249 246 251
253 314 291 258
245 320 292 250
180 252 258 249
120 173 175 163
0 1 2 0
0 0 0 0
0 0 0 0
0 0 0 0
0 0 0 0
0 0 0 0
0 0 0 0
3 0 0 0
17 2 0 0
24 15 7 0
59 75 92 123
128 141 133 133
189 243 245 242
253 337 323 296
242 309 287 256
190 252 259 250
122 189 191 188
0 11 13 7
0 0 0 0
0 0 0 0
0 0 0 0
0 0 0 0
0 0 0 0
0 0 0 0
6 0 0 0
14 2 0 0
32 25 18 14
77 103 125 125
139 169 177 175
214 272 253 246
255 303 280 255
225 291 259 259
161 234 250 250
61 130 142 132
0 0 0 0
0 0 0 0
0 0 0 0
0 0 0 0
0 0 0 0
0 0 0 0
1 0 0 0
9 0 0 0
22 10 3 0
46 51 57 74
106 133 128 138
167 215 239 229
249 309 287 252
256 316 296 259
206 272 250 240
127 195 209 220
1 42 69 103
0 0 0 0
0 0 0 0
0 0 0 0
0 0 0 0
0 0 0 0
0 0 0 0
3 0 0 0
14 1 0 0
25 13 3 0
54 62 73 90
122 146 138 133
175 225 251 250
253 314 297 264
245 324 303 253
191 263 254 238
126 177 184 175
0 8 16 3
0 0 0 0
0 0 0 0
0 0 0 0
0 0 0 0
0 0 0 0
0 0 0 0
4 0 0 0
9 0 0 0
22 14 4 1
55 64 77 104
124 132 137 132
176 224 250 253
253 312 298 261
244 317 288 259
186 257 257 258
125 174 175 172
0 7 7 1
0 0 0 0
0 0 0 0
0 0 0 0
0 0 0 0
0 0 0 0
0 0 0 0
5 0 0 0
10 0 0 0
23 15 8 1
56 67 82 108
118 142 134 133
178 231 253 240
252 316 303 268
247 323 304 257
190 262 253 238
126 174 179 171
0 6 7 0
0 0 0 0
0 0 0 0
0 0 0 0
0 0 0 0
0 0 0 0
0 0 0 0
1 0 0 0
13 1 0 0
25 18 12 4
59 70 86 117
131 140 139 137
190 242 255 241
256 315 299 263
247 304 271 254
194 254 261 248
127 173 181 180
0 1 5 1
0 0 0 0
0 0 0 0
0 0 0 0
0 0 0 0
0 0 0 0
0 0 0 0
5 0 0 0
17 4 0 0
29 23 20 16
71 95 121 122
132 155 152 144
203 251 258 253
254 328 304 265
234 319 285 249
177 256 245 245
97 168 153 130
0 1 0 0
0 0 0 0
0 0 0 0
0 0 0 0
0 0 0 0
0 0 0 0
0 0 0 0
6 0 0 0
18 4 0 0
35 27 24 18
83 110 132 118
141 180 189 194
213 276 262 256
255 306 290 254
227 298 264 248
167 245 249 247
68 130 137 131
0 0 0 0
0 0 0 0
0 0 0 0
0 0 0 0
0 0 0 0
0 0 0 0
0 0 0 0
12 1 0 0
19 14 7 2
46 55 63 82
109 134 135 142
168 214 235 253
248 322 308 271
249 333 318 272
201 276 262 246
132 194 216 228
1 36 61 95
0 0 0 0
0 0 0 0
0 0 0 0
0 0 0 0
0 0 0 0
0 0 0 0
1 0 0 0
10 2 0 0
23 16 10 4
59 76 95 129
130 143 133 152
192 246 243 248
256 320 307 276
246 323 298 259
184 254 259 257
118 184 191 188
0 5 3 0
0 0 0 0
0 0 0 0
0 0 0 0
0 0 0 0
0 0 0 0
0 0 0 0
1 0 0 0
17 4 0 0
25 19 8 4
54 69 81 109
125 131 143 131
188 240 254 245
254 317 305 268
248 305 279 247
195 259 254 252
119 185 181 173
0 10 12 2
0 0 0 0
0 0 0 0
0 0 0 0
0 0 0 0
0 0 0 0
0 0 0 0
9 0 0 0
20 8 2 0
33 27 24 21
84 116 119 128
137 176 176 178
215 278 258 255
252 305 285 253
222 291 258 253
162 238 258 238
53 121 128 128
0 0 0 0
0 0 0 0
0 0 0 0
0 0 0 0
0 0 0 0
0 0 0 0
1 0 0 0
5 0 0 0
20 9 2 0
45 46 50 64
100 134 127 136
162 206 230 252
248 304 283 255
256 314 290 255
213 278 257 242
141 197 217 232
11 54 89 126
0 0 0 0
0 0 0 0
0 0 0 0
0 0 0 0
0 0 0 0
0 0 0 0
3 0 0 0
13 0 0 0
20 11 0 0
53 60 70 89
120 132 138 130
186 229 253 255
256 309 291 257
252 326 301 257
189 259 252 261
131 187 197 205
0 20 34 44
0 0 0 0
0 0 0 0
0 0 0 0
0 0 0 0
0 0 0 0
0 0 0 0
5 0 0 0
10 1 0 0
31 25 21 21
78 101 134 130
137 171 179 184
203 261 251 253
249 326 308 263
220 300 265 248
161 244 244 234
65 132 137 127
0 0 0 0
0 0 0 0
0 0 0 0
0 0 0 0
0 0 0 0
0 0 0 0
0 0 0 0
6 0 0 0
18 10 1 0
42 45 49 59
101 130 136 131
162 203 230 255
245 316 302 265
254 313 298 255
200 263 260 260
133 195 212 236
13 53 85 122
0 0 0 0
0 0 0 0
0 0 0 0
0 0 0 0
0 0 0 0
0 0 0 0
1 0 0 0
9 0 0 0
17 7 0 0
50 55 64 83
107 131 130 133
169 209 225 244
254 301 283 256
250 323 294 251
196 259 259 248
132 178 187 189
0 26 38 50
0 0 0 0
0 0 0 0
0 0 0 0
0 0 0 0
0 0 0 0
0 0 0 0
4 0 0 0
17 2 0 0
30 24 20 16
73 96 124 118
132 159 160 153
202 253 249 254
253 327 304 265
240 299 268 251
178 252 259 239
101 170 167 150
0 0 0 0
0 0 0 0
0 0 0 0
0 0 0 0
0 0 0 0
0 0 0 0
0 0 0 0
7 0 0 0
17 7 0 0
38 39 36 42
89 119 127 129
141 175 178 184
220 282 256 257
251 326 308 264
223 302 264 257
161 237 255 235
58 130 137 134
0 0 0 0
0 0 0 0
0 0 0 0
0 0 0 0
0 0 0 0
0 0 0 0
0 0 0 0
4 0 0 0
15 1 0 0
38 36 32 32
101 130 135 131
166 207 231 249
246 321 302 267
252 332 317 266
198 273 260 246
133 198 223 248
10 52 88 123
0 0 0 0
0 0 0 0
0 0 0 0
0 0 0 0
0 0 0 0
0 0 0 0
2 0 0 0
15 3 0 0
27 22 18 16
72 94 120 135
133 152 147 133
197 255 242 255
252 313 290 256
237 316 280 251
178 254 248 243
101 173 172 157
0 0 0 0
0 0 0 0
0 0 0 0
0 0 0 0
0 0 0 0
0 0 0 0
0 0 0 0
4 0 0 0
18 8 0 0
34 35 34 38
84 120 131 131
141 184 194 206
216 281 253 259
255 309 283 248
223 290 255 258
159 228 250 250
53 118 131 130
0 0 0 0
0 0 0 0
0 0 0 0
0 0 0 0
0 0 0 0
0 0 0 0
1 0 0 0
6 0 0 0
16 4 0 0
44 46 51 61
100 127 138 134
166 209 236 252
247 303 282 254
256 314 288 252
204 270 250 257
131 203 221 239
6 54 95 132
0 0 0 0
0 0 0 0
0 0 0 0
0 0 0 0
0 0 0 0
0 0 0 0
2 0 0 0
13 2 0 0
25 18 15 11
66 81 104 127
135 150 148 134
193 252 255 254
252 312 289 257
237 314 274 263
181 253 242 249
110 182 180 160
0 1 0 0
0 0 0 0
0 0 0 0
0 0 0 0
0 0 0 0
0 0 0 0
0 0 0 0
5 0 0 0
17 5 0 0
35 29 26 20
84 113 129 121
143 183 193 199
222 283 257 258
252 329 301 263
218 300 263 251
163 245 242 250
54 125 132 129
0 0 0 0
0 0 0 0
0 0 0 0
0 0 0 0
0 0 0 0
0 0 0 0
0 0 0 0
9 0 0 0
21 10 1 0
49 52 58 75
108 133 136 135
167 219 241 233
250 329 318 287
254 316 305 260
203 268 263 246
133 188 205 212
8 41 65 95
0 0 0 0
0 0 0 0
0 0 0 0
0 0 0 0
0 0 0 0
0 0 0 0
0 0 0 0
9 0 0 0
22 13 3 0
48 58 66 86
108 133 133 133
164 208 221 247
249 321 303 268
247 330 309 265
190 259 261 261
130 180 197 204
0 23 39 51
0 0 0 0
0 0 0 0
0 0 0 0
0 0 0 0
0 0 0 0
0 0 0 0
2 0 0 0
14 4 0 0
22 13 3 1
57 69 84 118
121 148 128 143
184 243 262 243
256 313 298 264
250 309 283 255
198 259 249 247
125 171 169 157
0 5 2 0
0 0 0 0
0 0 0 0
0 0 0 0
0 0 0 0
0 0 0 0
0 0 0 0
7 0 0 0
16 3 0 0
27 24 19 15
74 91 119 132
132 158 157 147
198 256 246 252
253 315 294 261
237 319 283 257
179 254 259 247
95 158 149 132
0 0 0 0
0 0 0 0
0 0 0 0
0 0 0 0
0 0 0 0
0 0 0 0
0 0 0 0
6 0 0 0
12 1 0 0
27 21 14 6
72 93 118 129
131 155 151 136
206 256 254 257
255 310 289 256
231 302 266 254
170 250 260 246
89 155 147 137
0 0 0 0
0 0 0 0
0 0 0 0
0 0 0 0
0 0 0 0
0 0 0 0
0 0 0 0
6 0 0 0
13 3 0 0
32 27 20 16
78 108 127 131
137 171 176 175
219 277 259 253
252 303 282 249
219 280 254 248
160 232 255 230
56 129 127 125
0 0 0 0
0 0 0 0
0 0 0 0
0 0 0 0
0 0 0 0
0 0 0 0
1 0 0 0
8 0 0 0
19 3 0 0
40 40 38 41
100 130 138 133
160 198 217 234
246 295 268 269
252 329 299 263
207 282 255 255
131 214 232 255
10 66 113 133
0 0 0 0
0 0 0 0
0 0 0 0
0 0 0 0
0 0 0 0
0 0 0 0
4 0 0 0
10 1 0 0
31 24 21 20
69 90 115 128
130 154 150 135
202 251 260 243
254 306 292 259
236 310 270 258
171 250 256 239
86 152 142 131
0 0 0 0
0 0 0 0
0 0 0 0
0 0 0 0
0 0 0 0
0 0 0 0
0 0 0 0
3 0 0 0
17 3 1 0
31 28 21 21
85 115 121 132
147 187 196 208
218 282 255 261
252 307 288 253
218 284 258 259
155 225 247 248
52 117 137 131
0 0 0 0
0 0 0 0
0 0 0 0
0 0 0 0
0 0 0 0
0 0 0 0
0 0 0 0
12 1 0 0
22 15 8 2
53 62 77 102
123 137 127 134
182 227 246 252
256 316 299 265
252 331 312 267
195 263 255 255
130 183 192 195
0 15 24 24
0 0 0 0
0 0 0 0
0 0 0 0
0 0 0 0
0 0 0 0
0 0 0 0
1 0 0 0
15 2 0 0
33 30 29 29
70 96 123 123
134 166 170 168
204 257 259 253
253 309 290 255
230 305 267 249
172 249 254 226
85 145 131 133
0 0 0 0
0 0 0 0
0 0 0 0
0 0 0 0
0 0 0 0
0 0 0 0
0 0 0 0
4 0 0 0
13 1 0 0
32 25 21 18
81 109 128 134
143 182 192 203
220 280 252 256
250 332 307 265
214 294 263 247
153 229 254 255
43 116 133 124
0 0 0 0
0 0 0 0
0 0 0 0
0 0 0 0
0 0 0 0
0 0 0 0
2 0 0 0
16 0 0 0
19 9 2 0
49 55 61 81
115 132 138 129
169 212 225 246
254 304 284 256
253 306 279 257
199 262 254 241
132 184 194 196
1 27 43 53
0 0 0 0
0 0 0 0
0 0 0 0
0 0 0 0
0 0 0 0
0 0 0 0
1 0 0 0
13 2 0 0
24 19 11 4
64 78 102 130
128 157 155 143
191 252 254 254
252 333 316 278
240 327 305 259
192 261 252 238
119 175 173 160
0 0 0 0
0 0 0 0
0 0 0 0
0 0 0 0
0 0 0 0
0 0 0 0
0 0 0 0
2 0 0 0
17 3 0 0
26 23 11 9
74 91 117 128
132 159 157 147
199 249 259 246
251 305 288 261
228 302 265 247
170 251 259 248
84 155 145 134
0 0 0 0
0 0 0 0
0 0 0 0
0 0 0 0
0 0 0 0
0 0 0 0
0 0 0 0
7 0 0 0
11 1 0 0
32 26 25 19
81 113 137 127
144 183 194 204
213 275 260 260
253 303 284 254
222 288 256 248
163 236 257 233
63 130 131 130
0 0 0 0
0 0 0 0
0 0 0 0
0 0 0 0
0 0 0 0
0 0 0 0
3 0 0 0
10 0 0 0
22 14 5 0
54 60 73 98
113 127 138 133
173 212 234 255
252 304 290 258
251 333 313 267
196 271 254 241
127 198 212 228
0 35 56 85
0 0 0 0
0 0 0 0
0 0 0 0
0 0 0 0
0 0 0 0
0 0 0 0
1 0 0 0
14 3 0 0
29 22 17 16
73 91 119 130
131 158 158 150
202 252 255 247
256 303 284 250
235 311 267 264
177 253 243 237
102 175 171 156
0 0 0 0
0 0 0 0
0 0 0 0
0 0 0 0
0 0 0 0
0 0 0 0
0 0 0 0
7 0 0 0
18 7 0 0
35 30 29 23
84 118 125 125
144 187 196 208
215 281 249 258
255 308 280 255
223 294 258 256
165 237 261 240
51 123 133 126
0 0 0 0
0 0 0 0
0 0 0 0
0 0 0 0
0 0 0 0
0 0 0 0
2 0 0 0
10 0 0 0
22 12 6 0
50 59 70 95
116 131 136 132
172 214 238 251
251 307 290 262
251 326 302 257
199 267 257 240
130 176 182 178
0 19 25 29
0 0 0 0
0 0 0 0
0 0 0 0
0 0 0 0
0 0 0 0
0 0 0 0
3 0 0 0
8 0 0 0
19 7 0 0
49 54 61 81
115 127 139 130
178 220 248 242
253 302 288 261
253 304 279 255
197 258 253 261
126 196 205 212
0 33 53 71
0 0 0 0
0 0 0 0
0 0 0 0
0 0 0 0
0 0 0 0
0 0 0 0
5 0 0 0
13 3 0 0
27 23 21 18
71 95 120 127
138 163 165 158
205 257 257 256
253 310 291 260
239 316 281 250
180 254 249 253
10 0 0
0 0 0 0
0 0 0 0
3 0 0 0
5 0 0 0
21 13 3 0
50 59 70 92
119 132 131 128
178 226 246 246
252 311 293 261
247 326 300 263
195 266 262 240
127 181 186 188
2 28 42 56
0 0 0 0
0 0 0 0
0 0 0 0
0 0 0 0
0 0 0 0
0 0 0 0
7 0 0 0
12 1 0 0
29 23 22 21
72 98 124 120
134 163 164 158
206 253 261 243
256 311 291 259
236 315 280 249
178 253 262 248
98 168 158 136
0 0 0 0
0 0 0 0
0 0 0 0
0 0 0 0
0 0 0 0
0 0 0 0
0 0 0 0
10 0 0 0
24 12 3 0
45 47 51 60
99 130 133 134
153 193 210 229
234 305 273 261
254 314 288 258
218 289 254 257
149 215 238 254
39 101 138 134
0 0 0 0
0 0 0 0
0 0 0 0
0 0 0 0
0 0 0 0
0 0 0 0
2 0 0 0
17 3 0 0
26 14 9 1
54 65 78 100
127 134 148 136
184 231 254 241
256 309 291 257
245 319 295 254
188 256 255 255
125 175 180 175
0 9 8 2
0 0 0 0
0 0 0 0
0 0 0 0
0 0 0 0
0 0 0 0
0 0 0 0
1 0 0 0
14 0 0 0
27 21 19 14
72 89 116 128
137 158 156 147
196 253 257 257
252 334 315 283
236 320 291 256
182 258 258 251
100 167 152 128
0 0 0 0
0 0 0 0
0 0 0 0
0 0 0 0
0 0 0 0
0 0 0 0
0 0 0 0
8 0 0 0
11 2 0 0
26 23 15 11
77 100 128 124
136 167 173 171
216 273 257 249
258 304 282 248
220 286 260 258
160 232 253 260
55 126 131 135
0 0 0 0
0 0 0 0
0 0 0 0
0 0 0 0
0 0 0 0
0 0 0 0
0 0 0 0
6 0 0 0
19 9 1 0
35 38 36 40
102 127 133 131
163 203 224 253
250 302 284 259
255 306 279 253
206 266 258 256
132 191 200 209
18 60 92 126
0 0 0 0
0 0 0 0
0 0 0 0
0 0 0 0
0 0 0 0
0 0 0 0
1 0 0 0
12 1 0 0
25 21 16 9
60 74 95 125
129 138 131 130
193 245 254 240
257 309 290 254
242 295 265 253
187 254 244 246
117 181 176 164
0 3 0 0
0 0 0 0
0 0 0 0
0 0 0 0
0 0 0 0
0 0 0 0
0 0 0 0
6 0 0 0
11 1 0 0
27 16 10 2
67 87 111 115
135 154 155 143
197 253 242 246
251 312 288 261
237 311 272 257
181 254 248 246
103 175 174 160
0 0 0 0
0 0 0 0
0 0 0 0
0 0 0 0
0 0 0 0
0 0 0 0
0 0 0 0
8 0 0 0
15 3 0 0
36 34 34 36
84 119 128 125
137 179 187 194
216 275 255 256
250 329 306 271
224 304 262 259
160 241 258 239
53 127 131 126
0 0 0 0
0 0 0 0
0 0 0 0
0 0 0 0
0 0 0 0
0 0 0 0
3 0 0 0
16 1 0 0
25 19 12 4
54 63 79 101
125 131 144 132
177 217 246 244
256 304 289 255
247 302 270 260
192 256 259 243
127 177 190 186
0 7 9 2
0 0 0 0
0 0 0 0
0 0 0 0
0 0 0 0
0 0 0 0
0 0 0 0
1 0 0 0
16 1 0 0
20 11 1 0
57 67 82 107
119 143 136 130
179 236 255 239
255 311 295 264
242 302 273 260
199 258 244 251
127 174 171 161
0 4 5 0
0 0 0 0
0 0 0 0
0 0 0 0
0 0 0 0
0 0 0 0
0 0 0 0
2 0 0 0
15 2 0 0
22 11 1 0
58 66 82 107
123 126 135 126
175 218 243 234
252 306 295 262
247 305 276 252
199 260 246 253
128 175 174 163
0 10 12 2
0 0 0 0
0 0 0 0
0 0 0 0
0 0 0 0
0 0 0 0
0 0 0 0
4 0 0 0
11 1 0 0
33 27 24 26
74 97 125 121
134 163 163 153
205 261 246 260
253 309 290 258
228 302 261 251
173 249 249 244
83 146 137 131
0 0 0 0
0 0 0 0
0 0 0 0
0 0 0 0
0 0 0 0
0 0 0 0
0 0 0 0
10 0 0 0
18 3 0 0
38 33 32 28
93 127 125 131
145 187 195 204
233 302 267 259
252 330 302 261
219 301 265 254
155 234 255 237
38 108 133 131
0 0 0 0
0 0 0 0
0 0 0 0
0 0 0 0
0 0 0 0
0 0 0 0
1 0 0 0
11 2 0 0
26 18 14 10
70 87 113 119
137 155 158 149
200 258 249 261
257 310 288 258
242 294 261 246
186 255 245 249
108 180 172 153
0 1 0 0
0 0 0 0
0 0 0 0
0 0 0 0
0 0 0 0
0 0 0 0
0 0 0 0
2 0 0 0
19 8 0 0
32 29 26 23
84 115 118 128
139 176 179 178
218 277 262 259
255 297 278 259
220 284 256 259
159 229 252 257
54 126 135 128
0 0 0 0
0 0 0 0
0 0 0 0
0 0 0 0
0 0 0 0
0 0 0 0
0 0 0 0
10 0 0 0
23 13 4 0
50 61 69 91
108 134 130 135
171 212 232 252
253 304 289 255
246 324 294 258
199 269 257 238
135 186 197 202
1 30 51 73
0 0 0 0
0 0 0 0
0 0 0 0
0 0 0 0
0 0 0 0
0 0 0 0
4 0 0 0
16 3 0 0
25 21 17 15
70 91 121 134
132 156 162 157
201 254 250 242
250 332 310 273
238 328 303 256
186 257 254 254
105 172 169 150
0 0 0 0
0 0 0 0
0 0 0 0
0 0 0 0
0 0 0 0
0 0 0 0
0 0 0 0
2 0 0 0
17 6 0 0
32 30 24 21
84 115 120 131
143 185 192 206
220 285 257 260
252 307 281 249
221 290 258 256
159 232 255 260
54 124 132 129
0 0 0 0
0 0 0 0
0 0 0 0
0 0 0 0
0 0 0 0
0 0 0 0
1 0 0 0
11 0 0 0
22 15 4 1
51 60 70 93
114 131 125 136
178 219 246 240
254 309 298 269
252 309 287 253
196 261 255 255
129 203 213 226
0 40 69 104
0 0 0 0
0 0 0 0
0 0 0 0
0 0 0 0
0 0 0 0
0 0 0 0
2 0 0 0
19 4 0 0
28 20 13 7
71 89 120 130
134 152 154 141
204 256 246 255
253 314 294 254
239 290 262 252
181 249 248 245
103 167 153 133
0 0 0 0
0 0 0 0
0 0 0 0
0 0 0 0
0 0 0 0
0 0 0 0
0 0 0 0
10 0 0 0
22 10 2 0
40 41 40 43
92 128 127 124
156 201 218 239
239 316 290 257
256 316 301 260
217 288 257 256
147 218 245 241
33 94 131 129
0 0 0 0
0 0 0 0
0 0 0 0
0 0 0 0
0 0 0 0
0 0 0 0
1 0 0 0
6 0 0 0
22 10 4 0
53 58 72 96
119 131 131 130
182 227 248 252
257 308 291 261
251 305 281 259
195 259 250 257
126 197 203 205
0 36 57 78
0 0 0 0
0 0 0 0
0 0 0 0
0 0 0 0
0 0 0 0
0 0 0 0
6 0 0 0
17 3 0 0
30 24 23 21
68 90 113 127
134 159 159 156
200 253 251 260
252 314 293 265
236 318 285 257
180 258 247 256
100 172 160 137
0 0 0 0
0 0 0 0
0 0 0 0
0 0 0 0
0 0 0 0
0 0 0 0
0 0 0 0
8 0 0 0
21 10 2 0
42 45 48 58
99 130 130 133
156 200 223 241
233 304 277 258
255 310 284 256
216 283 255 259
146 213 232 250
31 93 128 131
0 0 0 0
0 0 0 0
0 0 0 0
0 0 0 0
0 0 0 0
0 0 0 0
2 0 0 0
11 0 0 0
25 14 7 1
54 65 77 105
118 141 130 136
178 232 250 234
255 309 292 264
249 306 276 250
195 258 247 243
129 200 217 223
0 23 39 54
0 0 0 0
0 0 0 0
0 0 0 0
0 0 0 0
0 0 0 0
0 0 0 0
2 0 0 0
13 4 0 0
24 18 10 4
68 82 108 112
133 154 155 149
205 253 254 255
253 307 282 255
236 310 271 258
175 256 239 233
93 165 153 135
0 0 0 0
0 0 0 0
0 0 0 0
0 0 0 0
0 0 0 0
0 0 0 0
0 0 0 0
6 0 0 0
16 1 0 0
35 31 32 35
79 108 130 132
137 173 181 181
213 267 261 253
249 321 297 258
221 295 258 257
164 243 247 242
60 132 148 128
0 0 0 0
0 0 0 0
0 0 0 0
0 0 0 0
0 0 0 0
0 0 0 0
2 0 0 0
9 0 0 0
21 11 3 0
43 45 51 60
109 131 128 137
169 216 239 234
252 308 291 253
255 316 294 252
207 271 260 243
133 189 200 208
12 49 79 112
0 0 0 0
0 0 0 0
0 0 0 0
0 0 0 0
0 0 0 0
0 0 0 0
2 0 0 0
14 2 0 0
31 25 20 21
70 91 113 125
135 162 160 151
203 253 260 257
253 309 287 254
233 310 273 245
176 255 256 246
91 158 143 127
0 0 0 0
0 0 0 0
0 0 0 0
0 0 0 0
0 0 0 0
0 0 0 0
0 0 0 0
10 0 0 0
18 9 2 0
36 29 31 32
89 121 138 128
148 185 198 216
228 290 256 265
253 331 309 266
215 291 255 260
159 233 252 227
50 120 133 137
0 0 0 0
0 0 0 0
0 0 0 0
0 0 0 0
0 0 0 0
0 0 0 0
3 0 0 0
10 0 0 0
23 17 7 2
49 57 68 89
117 131 138 134
182 232 249 231
256 316 301 265
250 330 311 260
194 263 261 231
131 178 182 172
0 20 27 28
0 0 0 0
0 0 0 0
0 0 0 0
0 0 0 0
0 0 0 0
0 0 0 0
5 0 0 0
14 0 0 0
31 25 22 21
76 101 131 132
136 167 177 181
206 257 262 251
256 309 288 256
232 306 266 258
176 249 262 246
75 132 143 133
0 0 0 0
0 0 0 0
0 0 0 0
0 0 0 0
0 0 0 0
0 0 0 0
0 0 0 0
7 0 0 0
21 7 1 0
38 35 35 34
90 118 134 127
151 191 204 221
233 302 271 267
254 314 289 262
216 284 259 258
154 218 245 239
42 101 130 126
0 0 0 0
0 0 0 0
0 0 0 0
0 0 0 0
0 0 0 0
0 0 0 0
0 0 0 0
15 1 0 0
28 19 16 12
63 77 102 128
129 140 130 152
196 252 255 252
251 310 286 256
236 319 283 255
177 253 248 242
106 183 186 173
0 0 0 0
0 0 0 0
0 0 0 0
0 0 0 0
0 0 0 0
0 0 0 0
0 0 0 0
2 0 0 0
17 7 0 0
28 28 23 19
80 103 124 128
138 176 182 190
215 273 257 254
251 305 283 253
221 290 254 248
157 230 253 249
54 128 131 128
0 0 0 0
0 0 0 0
0 0 0 0
0 0 0 0
0 0 0 0
0 0 0 0
0 0 0 0
10 0 0 0
22 13 1 0
48 58 67 85
107 132 132 136
173 215 239 238
254 302 290 256
255 305 282 256
201 262 254 238
136 194 208 218
4 41 66 96
0 0 0 0
0 0 0 0
0 0 0 0
0 0 0 0
0 0 0 0
0 0 0 0
3 0 0 0
8 0 0 0
20 6 0 0
50 54 62 75
112 125 132 129
172 208 232 252
251 322 303 268
255 314 296 256
193 258 252 260
133 192 205 221
4 35 63 95
0 0 0 0
0 0 0 0
0 0 0 0
0 0 0 0
0 0 0 0
0 0 0 0
4 0 0 0
10 1 0 0
21 9 1 0
51 58 67 89
119 130 136 130
181 223 245 248
256 314 299 267
253 330 314 272
196 266 260 241
124 194 203 211
0 24 41 53
0 0 0 0
0 0 0 0
0 0 0 0
0 0 0 0
0 0 0 0
0 0 0 0
5 0 0 0
17 3 0 0
32 28 26 26
72 91 118 132
131 159 154 141
203 252 258 248
254 307 288 258
238 312 277 252
177 252 255 248
87 152 132 132
0 0 0 0
0 0 0 0
0 0 0 0
0 0 0 0
0 0 0 0
0 0 0 0
0 0 0 0
7 0 0 0
18 6 0 0
34 31 25 22
84 118 120 119
144 187 196 207
215 280 254 257
251 327 304 264
225 307 269 253
160 240 260 234
59 131 145 131
0 0 0 0
0 0 0 0
0 0 0 0
0 0 0 0
0 0 0 0
0 0 0 0
2 0 0 0
6 0 0 0
19 11 1 0
42 44 47 53
101 133 130 133
168 212 240 230
249 308 291 253
257 314 296 259
205 269 252 254
132 186 193 202
10 42 65 94
0 0 0 0
0 0 0 0
0 0 0 0
0 0 0 0
0 0 0 0
0 0 0 0
1 0 0 0
13 4 0 0
27 23 18 15
72 91 119 131
131 159 157 148
200 251 257 254
253 305 284 258
238 314 279 247
181 258 245 248
103 177 168 146
0 0 0 0
0 0 0 0
0 0 0 0
0 0 0 0
0 0 0 0
0 0 0 0
0 0 0 0
6 0 0 0
18 9 0 0
39 38 42 45
84 114 128 132
144 182 188 200
220 285 255 257
252 309 281 248
217 286 256 255
159 233 250 235
57 127 136 128
0 0 0 0
0 0 0 0
0 0 0 0
0 0 0 0
0 0 0 0
0 0 0 0
3 0 0 0
9 0 0 0
19 7 0 0
45 47 55 66
104 132 126 133
160 205 216 242
247 302 274 257
258 308 277 248
204 263 255 248
134 182 203 211
8 41 74 108
0 0 0 0
0 0 0 0
0 0 0 0
0 0 0 0
0 0 0 0
0 0 0 0
4 0 0 0
13 1 0 0
25 19 11 4
57 70 88 118
130 141 134 138
188 244 244 247
256 312 298 267
245 300 271 255
189 252 252 238
123 163 162 148
0 0 0 0
0 0 0 0
0 0 0 0
0 0 0 0
0 0 0 0
0 0 0 0
0 0 0 0
4 0 0 0
17 3 0 0
30 25 21 19
76 97 128 121
131 159 159 148
198 253 250 260
252 314 294 266
233 314 279 251
172 253 241 240
93 163 158 137
0 0 0 0
0 0 0 0
0 0 0 0
0 0 0 0
0 0 0 0
0 0 0 0
0 0 0 0
3 0 0 0
20 4 0 0
33 28 23 20
77 104 125 122
136 169 179 177
213 271 254 247
254 302 282 251
220 286 262 259
165 239 259 241
59 125 138 127
0 0 0 0
0 0 0 0
0 0 0 0
0 0 0 0
0 0 0 0
0 0 0 0
2 0 0 0
15 0 0 0
17 8 0 0
40 41 42 44
103 128 136 126
165 202 223 244
248 320 301 272
251 315 298 255
202 270 257 239
134 186 198 204
9 41 64 92
0 0 0 0
0 0 0 0
0 0 0 0
0 0 0 0
0 0 0 0
0 0 0 0
1 0 0 0
13 1 0 0
23 19 12 3
51 65 78 107
124 133 148 135
175 219 246 245
252 310 297 264
247 306 277 252
199 254 253 253
127 180 181 180
0 13 11 7
0 0 0 0
0 0 0 0
0 0 0 0
0 0 0 0
0 0 0 0
0 0 0 0
7 0 0 0
13 1 0 0
26 22 13 9
73 92 116 127
131 159 158 151
206 254 253 259
256 302 273 269
237 310 266 253
179 258 248 248
91 159 149 133
0 0 0 0
0 0 0 0
0 0 0 0
0 0 0 0
0 0 0 0
0 0 0 0
0 0 0 0
7 0 0 0
11 2 0 0
34 25 22 15
84 113 129 121
137 175 178 180
214 270 266 248
251 322 304 264
219 295 258 259
156 234 250 258
53 123 135 131
0 0 0 0
0 0 0 0
0 0 0 0
0 0 0 0
0 0 0 0
0 0 0 0
1 0 0 0
12 0 0 0
20 7 0 0
45 53 58 74
101 131 127 129
168 216 244 237
249 328 320 289
252 333 328 285
203 281 253 260
135 200 217 238
3 44 71 114
0 0 0 0
0 0 0 0
0 0 0 0
0 0 0 0
0 0 0 0
0 0 0 0
1 0 0 0
14 1 0 0
29 21 16 12
69 93 121 125
130 152 157 145
199 254 246 259
256 310 289 261
231 309 269 257
183 250 255 241
100 159 153 131
0 0 0 0
0 0 0 0
0 0 0 0
0 0 0 0
0 0 0 0
0 0 0 0
0 0 0 0
6 0 0 0
12 1 0 0
33 24 20 14
80 104 127 127
147 181 196 208
225 285 259 263
253 311 288 256
220 288 254 260
157 230 252 258
53 122 138 124
0 0 0 0
0 0 0 0
0 0 0 0
0 0 0 0
0 0 0 0
0 0 0 0
2 0 0 0
3 0 0 0
18 10 0 0
46 52 58 78
110 135 130 131
166 213 232 253
253 303 288 254
25 131 137
169 215 244 241
248 322 309 273
252 332 324 277
203 279 252 250
134 196 208 219
2 38 60 90
0 0 0 0
0 0 0 0
0 0 0 0
0 0 0 0
0 0 0 0
0 0 0 0
5 0 0 0
16 1 0 0
26 22 15 8
57 69 90 115
129 142 132 136
185 244 241 247
253 319 304 270
244 302 272 260
189 252 254 245
125 171 176 168
0 3 2 0
0 0 0 0
0 0 0 0
0 0 0 0
0 0 0 0
0 0 0 0
0 0 0 0
4 0 0 0
11 1 0 0
26 14 9 1
60 72 91 118
129 139 132 135
188 243 241 247
257 319 305 270
248 310 283 254
193 258 254 255
121 165 159 143
0 0 0 0
0 0 0 0
0 0 0 0
0 0 0 0
0 0 0 0
0 0 0 0
0 0 0 0
4 0 0 0
10 0 0 0
27 21 16 15
73 91 119 130
136 161 163 154
209 257 252 257
253 303 280 261
239 289 255 256
182 249 258 255
94 157 136 140
0 0 0 0
0 0 0 0
0 0 0 0
0 0 0 0
0 0 0 0
0 0 0 0
0 0 0 0
6 0 0 0
11 9 0 0
32 27 23 19
75 101 125 126
136 173 184 194
213 270 266 258
254 302 283 255
222 286 252 255
160 230 253 259
56 125 127 125
0 0 0 0
0 0 0 0
0 0 0 0
0 0 0 0
0 0 0 0
0 0 0 0
3 0 0 0
11 0 0 0
22 15 5 0
42 47 53 65
109 132 132 134
171 214 234 255
254 302 286 254
250 303 279 260
197 257 259 255
139 190 201 204
4 38 61 84
0 0 0 0
0 0 0 0
0 0 0 0
0 0 0 0
0 0 0 0
0 0 0 0
1 0 0 0
12 0 0 0
26 20 13 8
57 70 87 116
131 144 134 135
193 247 248 241
257 319 311 271
244 300 270 260
195 255 248 254
128 166 161 149
0 0 0 0
0 0 0 0
0 0 0 0
0 0 0 0
0 0 0 0
0 0 0 0
0 0 0 0
5 0 0 0
17 3 0 0
32 27 26 23
69 92 118 130
130 155 153 138
199 259 250 258
251 314 296 266
233 312 279 249
172 251 254 245
96 161 156 133
0 0 0 0
0 0 0 0
0 0 0 0
0 0 0 0
0 0 0 0
0 0 0 0
0 0 0 0
7 0 0 0
19 10 1 0
39 42 42 52
90 126 128 128
142 180 188 192
225 290 255 259
251 306 282 252
213 279 258 244
151 215 245 232
43 103 132 130
0 0 0 0
0 0 0 0
0 0 0 0
0 0 0 0
0 0 0 0
0 0 0 0
1 0 0 0
13 2 0 0
17 8 1 0
44 50 49 61
110 135 135 137
174 218 249 249
251 302 291 261
254 330 311 268
199 271 254 241
134 187 201 212
0 25 42 59
0 0 0 0
0 0 0 0
0 0 0 0
0 0 0 0
0 0 0 0
0 0 0 0
5 0 0 0
17 4 0 0
33 23 22 18
75 96 122 117
130 161 160 153
198 257 251 263
253 315 299 261
240 318 288 254
178 257 244 255
96 169 155 132
0 1 0 0
0 0 0 0
0 0 0 0
0 0 0 0
0 0 0 0
0 0 0 0
0 0 0 0
2 0 0 0
15 4 0 0
30 25 18 11
73 100 124 118
138 170 179 180
211 269 259 246
254 302 281 255
222 286 260 257
161 236 251 234
66 130 131 132
0 0 0 0
0 0 0 0
0 0 0 0
0 0 0 0
0 0 0 0
0 0 0 0
1 0 0 0
7 0 0 0
22 8 2 0
40 40 40 42
98 127 134 130
154 192 208 227
243 286 262 249
256 307 283 257
217 284 258 253
149 212 238 224
27 85 126 125
0 0 0 0
0 0 0 0
0 0 0 0
0 0 0 0
0 0 0 0
0 0 0 0
4 0 0 0
13 2 0 0
25 21 15 9
54 68 87 115
123 131 142 130
181 228 255 258
252 313 297 265
246 305 272 256
195 257 255 245
126 172 179 164
0 3 2 0
0 0 0 0
0 0 0 0
0 0 0 0
0 0 0 0
0 0 0 0
0 0 0 0
3 0 0 0
9 0 0 0
19 7 0 0
52 55 65 86
114 129 130 132
177 221 248 245
251 327 314 285
249 333 319 273
192 261 262 255
128 201 214 226
0 31 51 75
0 0 0 0
0 0 0 0
0 0 0 0
0 0 0 0
0 0 0 0
0 0 0 0
5 0 0 0
17 4 0 0
31 25 21 20
68 86 112 127
132 157 155 151
198 257 250 259
252 312 293 259
232 306 271 255
175 255 255 250
92 159 140 134
0 0 0 0
0 0 0 0
0 0 0 0
0 0 0 0
0 0 0 0
0 0 0 0
0 0 0 0
6 0 0 0
12 1 0 0
32 24 18 9
74 99 126 120
137 168 174 173
214 261 256 252
258 303 282 249
232 300 262 243
178 249 258 254
84 147 139 138
0 0 0 0
0 0 0 0
0 0 0 0
0 0 0 0
0 0 0 0
0 0 0 0
0 0 0 0
11 0 0 0
22 11 2 0
48 50 56 73
98 129 132 135
156 195 212 231
243 290 261 258
253 301 268 257
210 271 244 260
143 202 218 246
24 79 118 136
0 0 0 0
0 0 0 0
0 0 0 0
0 0 0 0
0 0 0 0
0 0 0 0
4 0 0 0
9 0 0 0
17 7 0 0
47 53 61 76
106 128 130 126
168 205 228 247
249 317 299 264
251 332 314 265
198 269 261 234
135 189 206 216
1 30 49 70
0 0 0 0
0 0 0 0
0 0 0 0
0 0 0 0
0 0 0 0
0 0 0 0
6 0 0 0
15 4 0 0
19 12 1 0
55 67 82 110
122 130 133 133
180 232 249 258
252 314 302 269
245 297 269 256
195 252 258 242
126 174 181 179
0 8 9 3
0 0 0 0
0 0 0 0
0 0 0 0
0 0 0 0
0 0 0 0
0 0 0 0
2 0 0 0
13 4 0 0
28 23 16 12
70 91 119 129
131 156 155 147
194 253 246 245
252 313 296 262
237 320 289 255
179 255 259 238
102 169 167 150
0 0 0 0
0 0 0 0
0 0 0 0
0 0 0 0
0 0 0 0
0 0 0 0
0 0 0 0
3 0 0 0
19 8 2 0
35 36 34 39
85 119 130 130
141 181 189 201
218 283 258 257
252 328 304 264
220 302 269 259
157 236 259 244
56 129 139 131
0 0 0 0
0 0 0 0
0 0 0 0
0 0 0 0
0 0 0 0
0 0 0 0
2 0 0 0
6 0 0 0
22 11 5 0
50 54 64 84
113 130 137 142
174 215 236 255
255 303 289 256
255 309 286 255
205 263 259 256
134 185 195 202
3 34 51 69
0 0 0 0
0 0 0 0
0 0 0 0
0 0 0 0
0 0 0 0
0 0 0 0
2 0 0 0
11 2 0 0
22 15 5 1
55 65 80 109
118 140 133 129
177 232 249 234
252 333 320 288
245 331 314 268
182 256 258 233
120 194 200 198
0 27 39 50
0 0 0 0
0 0 0 0
0 0 0 0
0 0 0 0
0 0 0 0
0 0 0 0
8 0 0 0
15 2 0 0
31 23 19 11
77 100 128 124
136 165 172 169
213 265 257 245
251 301 278 262
225 292 261 246
161 236 256 232
64 129 149 127
0 0 0 0
0 0 0 0
0 0 0 0
0 0 0 0
0 0 0 0
0 0 0 0
1 0 0 0
11 0 0 0
18 7 1 0
45 48 56 68
102 129 125 133
162 203 223 242
248 317 299 268
253 340 328 295
207 285 258 252
128 206 225 235
3 53 93 128
0 0 0 0
0 0 0 0
0 0 0 0
0 0 0 0
0 0 0 0
0 0 0 0
2 0 0 0
11 0 0 0
19 8 0 0
51 57 66 86
118 131 133 135
180 226 246 255
253 312 294 266
250 326 303 258
193 264 255 244
127 205 220 234
0 39 72 109
0 0 0 0
0 0 0 0
0 0 0 0
0 0 0 0
0 0 0 0
0 0 0 0
1 0 0 0
15 2 0 0
33 30 29 30
70 96 125 123
132 167 173 173
203 256 260 260
253 311 291 256
228 300 265 254
170 246 258 245
84 144 137 133
0 0 0 0
0 0 0 0
0 0 0 0
0 0 0 0
0 0 0 0
0 0 0 0
0 0 0 0
10 0 0 0
21 11 0 0
46 48 53 66
98 127 136 130
159 195 212 228
242 284 260 261
253 303 273 270
217 277 253 246
141 198 218 232
25 70 117 128
0 0 0 0
0 0 0 0
0 0 0 0
0 0 0 0
0 0 0 0
0 0 0 0
2 0 0 0
16 1 0 0
26 22 17 14
65 83 108 113
134 152 154 142
198 254 245 253
252 313 290 259
238 320 279 252
186 254 251 254
103 168 154 133
0 0 0 0
0 0 0 0
0 0 0 0
0 0 0 0
0 0 0 0
0 0 0 0
0 0 0 0
3 0 0 0
17 5 0 0
27 25 14 12
75 102 127 123
136 167 171 170
214 268 250 257
254 300 274 259
225 289 255 253
163 232 246 252
63 128 141 128
0 0 0 0
0 0 0 0
0 0 0 0
0 0 0 0
0 0 0 0
0 0 0 0
4 0 0 0
13 1 0 0
23 16 5 1
47 53 58 72
115 134 130 136
