## File generated by myo_cap software
## Available from github.com/ddantas/myo_cap
## Timestamp: 2018-05-23_20-57-32
##
## EMG capture settings##
# sampleRate: 2000.0
# channelsPerBoard: 4.0
# nBoards: 1.0
# bitsPerSample: 12.0
##
## Data
## t; ch0; ch1; ch2; ch3
0.0; 0.0; 0.0; 0.0
12.0; 1.0; 0.0; 0.0
35.0; 29.0; 27.0; 26.0
79.0; 106.0; 127.0; 135.0
142.0; 181.0; 193.0; 208.0
208.0; 265.0; 265.0; 257.0
249.0; 327.0; 311.0; 279.0
223.0; 306.0; 272.0; 260.0
160.0; 245.0; 246.0; 240.0
59.0; 129.0; 141.0; 128.0
0.0; 0.0; 0.0; 0.0
0.0; 0.0; 0.0; 0.0
0.0; 0.0; 0.0; 0.0
0.0; 0.0; 0.0; 0.0
0.0; 0.0; 0.0; 0.0
0.0; 0.0; 0.0; 0.0
0.0; 0.0; 0.0; 0.0
13.0; 0.0; 0.0; 0.0
21.0; 8.0; 1.0; 0.0
52.0; 58.0; 66.0; 86.0
105.0; 127.0; 130.0; 139.0
169.0; 2.0; 0.0; 0.0
0.0; 0.0; 0.0; 0.0
0.0; 0.0; 0.0; 0.0
0.0; 0.0; 0.0; 0.0
0.0; 0.0; 0.0; 0.0
0.0; 0.0; 0.0; 0.0
0.0; 0.0; 0.0; 0.0
1.0; 0.0; 0.0; 0.0
16.0; 2.0; 0.0; 0.0
38.0; 32.0; 32.0; 31.0
87.0; 119.0; 131.0; 125.0
137.0; 181.0; 190.0; 202.0
215.0; 274.0; 255.0; 255.0
251.0; 328.0; 312.0; 279.0
228.0; 312.0; 281.0; 251.0
159.0; 241.0; 255.0; 247.0
63.0; 134.0; 131.0; 134.0
0.0; 0.0; 0.0; 0.0
0.0; 0.0; 0.0; 0.0
0.0; 0.0; 0.0; 0.0
0.0; 0.0; 0.0; 0.0
0.0; 0.0; 0.0; 0.0
0.0; 0.0; 0.0; 0.0
1.0; 0.0; 0.0; 0.0
9.0; 0.0; 0.0; 0.0
22.0; 13.0; 5.0; 1.0
54.0; 63.0; 74.0; 99.0
111.0; 139.0; 136.0; 131.0
171.0; 218.0; 248.0; 248.0
242.0; 299.0; 283.0; 259.0
256.0; 318.0; 300.0; 262.0
206.0; 270.0; 261.0; 248.0
135.0; 192.0; 208.0; 226.0
21.0; 58.0; 91.0; 129.0
0.0; 0.0; 0.0; 0.0
0.0; 0.0; 0.0; 0.0
0.0; 0.0; 0.0; 0.0
0.0; 0.0; 0.0; 0.0
0.0; 0.0; 0.0; 0.0
0.0; 0.0; 0.0; 0.0
1.0; 0.0; 0.0; 0.0
16.0; 2.0; 0.0; 0.0
36.0; 30.0; 26.0; 30.0
80.0; 106.0; 127.0; 130.0
135.0; 165.0; 170.0; 163.0
203.0; 258.0; 250.0; 245.0
251.0; 316.0; 292.0; 263.0
247.0; 302.0; 266.0; 253.0
181.0; 250.0; 261.0; 247.0
82.0; 139.0; 133.0; 131.0
0.0; 0.0; 0.0; 0.0
0.0; 0.0; 0.0; 0.0
0.0; 0.0; 0.0; 0.0
0.0; 0.0; 0.0; 0.0
0.0; 0.0; 0.0; 0.0
0.0; 0.0; 0.0; 0.0
0.0; 0.0; 0.0; 0.0
2.0; 0.0; 0.0; 0.0
20.0; 6.0; 1.0; 0.0
38.0; 40.0; 40.0; 43.0
92.0; 127.0; 131.0; 132.0
147.0; 196.0; 210.0; 240.0
221.0; 294.0; 261.0; 258.0
250.0; 315.0; 289.0; 256.0
219.0; 290.0; 261.0; 251.0
158.0; 229.0; 248.0; 248.0
51.0; 121.0; 136.0; 126.0
0.0; 0.0; 0.0; 0.0
0.0; 0.0; 0.0; 0.0
0.0; 0.0; 0.0; 0.0
0.0; 0.0; 0.0; 0.0
0.0; 0.0; 0.0; 0.0
0.0; 0.0; 0.0; 0.0
1.0; 0.0; 0.0; 0.0
16.0; 0.0; 0.0; 0.0
28.0; 20.0; 16.0; 12.0
68.0; 83.0; 110.0; 115.0
135.0; 155.0; 156.0; 146.0
191.0; 251.0; 253.0; 254.0
249.0; 332.0; 312.0; 281.0
246.0; 316.0; 295.0; 252.0
190.0; 257.0; 253.0; 256.0
113.0; 159.0; 153.0; 133.0
0.0; 0.0; 0.0; 0.0
0.0; 0.0; 0.0; 0.0
0.0; 0.0; 0.0; 0.0
0.0; 0.0; 0.0; 0.0
0.0; 0.0; 0.0; 0.0
0.0; 0.0; 0.0; 0.0
0.0; 0.0; 0.0; 0.0
1.0; 0.0; 0.0; 0.0
17.0; 4.0; 0.0; 0.0
33.0; 29.0; 26.0; 26.0
82.0; 116.0; 120.0; 131.0
139.0; 183.0; 194.0; 206.0
207.0; 271.0; 258.0; 254.0
251.0; 334.0; 323.0; 288.0
226.0; 319.0; 293.0; 248.0
162.0; 244.0; 254.0; 228.0
67.0; 128.0; 147.0; 135.0
0.0; 0.0; 0.0; 0.0
0.0; 0.0; 0.0; 0.0
0.0; 0.0; 0.0; 0.0
0.0; 0.0; 0.0; 0.0
0.0; 0.0; 0.0; 0.0
0.0; 0.0; 0.0; 0.0
0.0; 0.0; 0.0; 0.0
10.0; 0.0; 0.0; 0.0
22.0; 15.0; 5.0; 1.0
57.0; 63.0; 77.0; 103.0
123.0; 132.0; 142.0; 137.0
185.0; 225.0; 253.0; 262.0
253.0; 332.0; 319.0; 295.0
251.0; 322.0; 314.0; 279.0
199.0; 270.0; 266.0; 246.0
127.0; 198.0; 212.0; 221.0
4.0; 45.0; 74.0; 114.0
0.0; 0.0; 0.0; 0.0
0.0; 0.0; 0.0; 0.0
0.0; 0.0; 0.0; 0.0
0.0; 0.0; 0.0; 0.0
0.0; 0.0; 0.0; 0.0
0.0; 0.0; 0.0; 0.0
3.0; 0.0; 0.0; 0.0
12.0; 0.0; 0.0; 0.0
37.0; 30.0; 29.0; 30.0
81.0; 111.0; 137.0; 130.0
130.0; 191.0; 197.0; 214.0
200.0; 261.0; 260.0; 255.0
251.0; 332.0; 322.0; 292.0
231.0; 322.0; 300.0; 262.0
167.0; 250.0; 257.0; 255.0
77.0; 135.0; 145.0; 131.0
0.0; 0.0; 0.0; 0.0
0.0; 0.0; 0.0; 0.0
0.0; 0.0; 0.0; 0.0
0.0; 0.0; 0.0; 0.0
0.0; 0.0; 0.0; 0.0
0.0; 0.0; 0.0; 0.0
0.0; 0.0; 0.0; 0.0
2.0; 0.0; 0.0; 0.0
18.0; 8.0; 1.0; 0.0
42.0; 48.0; 52.0; 66.0
89.0; 125.0; 124.0; 126.0
150.0; 197.0; 216.0; 239.0
215.0; 288.0; 259.0; 258.0
254.0; 313.0; 293.0; 255.0
221.0; 297.0; 260.0; 252.0
152.0; 223.0; 244.0; 243.0
47.0; 117.0; 129.0; 138.0
0.0; 0.0; 0.0; 0.0
0.0; 0.0; 0.0; 0.0
0.0; 0.0; 0.0; 0.0
0.0; 0.0; 0.0; 0.0
0.0; 0.0; 0.0; 0.0
0.0; 0.0; 0.0; 0.0
1.0; 0.0; 0.0; 0.0
15.0; 1.0; 0.0; 0.0
26.0; 13.0; 7.0; 1.0
61.0; 73.0; 95.0; 121.0
118.0; 152.0; 135.0; 153.0
180.0; 244.0; 241.0; 248.0
245.0; 332.0; 318.0; 288.0
248.0; 320.0; 307.0; 263.0
198.0; 263.0; 258.0; 259.0
123.0; 165.0; 159.0; 147.0
1.0; 7.0; 7.0; 0.0
0.0; 0.0; 0.0; 0.0
0.0; 0.0; 0.0; 0.0
0.0; 0.0; 0.0; 0.0
0.0; 0.0; 0.0; 0.0
0.0; 0.0; 0.0; 0.0
0.0; 0.0; 0.0; 0.0
3.0; 0.0; 0.0; 0.0
16.0; 2.0; 0.0; 0.0
29.0; 24.0; 21.0; 17.0
74.0; 97.0; 125.0; 120.0
132.0; 161.0; 163.0; 157.0
196.0; 258.0; 248.0; 249.0
251.0; 334.0; 319.0; 281.0
239.0; 333.0; 313.0; 264.0
184.0; 259.0; 248.0; 253.0
109.0; 182.0; 179.0; 167.0
0.0; 4.0; 1.0; 0.0
0.0; 0.0; 0.0; 0.0
0.0; 0.0; 0.0; 0.0
0.0; 0.0; 0.0; 0.0
0.0; 0.0; 0.0; 0.0
0.0; 0.0; 0.0; 0.0
0.0; 0.0; 0.0; 0.0
5.0; 0.0; 0.0; 0.0
18.0; 5.0; 0.0; 0.0
40.0; 39.0; 43.0; 50.0
80.0; 113.0; 132.0; 124.0
137.0; 179.0; 188.0; 200.0
210.0; 272.0; 258.0; 262.0
255.0; 306.0; 292.0; 259.0
229.0; 302.0; 268.0; 253.0
166.0; 247.0; 241.0; 228.0
68.0; 131.0; 131.0; 131.0
0.0; 0.0; 0.0; 0.0
0.0; 0.0; 0.0; 0.0
0.0; 0.0; 0.0; 0.0
0.0; 0.0; 0.0; 0.0
0.0; 0.0; 0.0; 0.0
0.0; 0.0; 0.0; 0.0
1.0; 0.0; 0.0; 0.0
8.0; 0.0; 0.0; 0.0
16.0; 6.0; 0.0; 0.0
46.0; 53.0; 58.0; 75.0
97.0; 129.0; 133.0; 137.0
157.0; 200.0; 227.0; 250.0
225.0; 299.0; 269.0; 267.0
252.0; 333.0; 313.0; 274.0
210.0; 294.0; 264.0; 245.0
137.0; 205.0; 226.0; 247.0
24.0; 80.0; 125.0; 128.0
0.0; 0.0; 0.0; 0.0
0.0; 0.0; 0.0; 0.0
0.0; 0.0; 0.0; 0.0
0.0; 0.0; 0.0; 0.0
0.0; 0.0; 0.0; 0.0
0.0; 0.0; 0.0; 0.0
1.0; 0.0; 0.0; 0.0
13.0; 1.0; 0.0; 0.0
29.0; 21.0; 17.0; 16.0
72.0; 95.0; 120.0; 122.0
132.0; 161.0; 163.0; 163.0
196.0; 258.0; 249.0; 253.0
249.0; 333.0; 318.0; 285.0
246.0; 316.0; 296.0; 260.0
186.0; 254.0; 249.0; 254.0
109.0; 172.0; 160.0; 141.0
0.0; 0.0; 0.0; 0.0
0.0; 0.0; 0.0; 0.0
0.0; 0.0; 0.0; 0.0
0.0; 0.0; 0.0; 0.0
0.0; 0.0; 0.0; 0.0
0.0; 0.0; 0.0; 0.0
0.0; 0.0; 0.0; 0.0
5.0; 0.0; 0.0; 0.0
14.0; 1.0; 0.0; 0.0
37.0; 36.0; 38.0; 43.0
84.0; 120.0; 131.0; 132.0
138.0; 184.0; 197.0; 209.0
204.0; 269.0; 266.0; 257.0
251.0; 333.0; 322.0; 287.0
219.0; 305.0; 273.0; 252.0
160.0; 246.0; 247.0; 244.0
61.0; 134.0; 139.0; 134.0
0.0; 0.0; 0.0; 0.0
0.0; 0.0; 0.0; 0.0
0.0; 0.0; 0.0; 0.0
0.0; 0.0; 0.0; 0.0
0.0; 0.0; 0.0; 0.0
0.0; 0.0; 0.0; 0.0
0.0; 0.0; 0.0; 0.0
12.0; 0.0; 0.0; 0.0
22.0; 15.0; 11.0; 5.0
54.0; 61.0; 77.0; 103.0
120.0; 149.0; 134.0; 150.0
174.0; 229.0; 251.0; 258.0
247.0; 331.0; 318.0; 290.0
250.0; 344.0; 337.0; 311.0
182.0; 260.0; 264.0; 243.0
123.0; 169.0; 177.0; 165.0
0.0; 15.0; 20.0; 16.0
0.0; 0.0; 0.0; 0.0
0.0; 0.0; 0.0; 0.0
0.0; 0.0; 0.0; 0.0
0.0; 0.0; 0.0; 0.0
0.0; 0.0; 0.0; 0.0
0.0; 0.0; 0.0; 0.0
4.0; 0.0; 0.0; 0.0
11.0; 1.0; 0.0; 0.0
34.0; 27.0; 22.0; 17.0
84.0; 111.0; 136.0; 121.0
138.0; 171.0; 180.0; 179.0
201.0; 258.0; 248.0; 262.0
251.0; 336.0; 322.0; 293.0
230.0; 318.0; 296.0; 253.0
162.0; 245.0; 259.0; 236.0
70.0; 130.0; 136.0; 127.0
0.0; 0.0; 0.0; 0.0
0.0; 0.0; 0.0; 0.0
0.0; 0.0; 0.0; 0.0
0.0; 0.0; 0.0; 0.0
0.0; 0.0; 0.0; 0.0
0.0; 0.0; 0.0; 0.0
0.0; 0.0; 0.0; 0.0
7.0; 0.0; 0.0; 0.0
21.0; 10.0; 3.0; 0.0
51.0; 57.0; 66.0; 87.0
106.0; 134.0; 130.0; 136.0
169.0; 219.0; 248.0; 240.0
239.0; 325.0; 310.0; 266.0
254.0; 317.0; 308.0; 265.0
211.0; 280.0; 258.0; 261.0
132.0; 213.0; 231.0; 253.0
19.0; 79.0; 123.0; 123.0
0.0; 0.0; 0.0; 0.0
0.0; 0.0; 0.0; 0.0
0.0; 0.0; 0.0; 0.0
0.0; 0.0; 0.0; 0.0
0.0; 0.0; 0.0; 0.0
0.0; 0.0; 0.0; 0.0
1.0; 0.0; 0.0; 0.0
15.0; 2.0; 0.0; 0.0
26.0; 22.0; 13.0; 9.0
68.0; 91.0; 117.0; 130.0
136.0; 159.0; 159.0; 155.0
196.0; 254.0; 258.0; 261.0
252.0; 332.0; 316.0; 291.0
237.0; 326.0; 307.0; 259.0
181.0; 258.0; 254.0; 257.0
97.0; 161.0; 150.0; 128.0
0.0; 0.0; 0.0; 0.0
0.0; 0.0; 0.0; 0.0
0.0; 0.0; 0.0; 0.0
0.0; 0.0; 0.0; 0.0
0.0; 0.0; 0.0; 0.0
0.0; 0.0; 0.0; 0.0
0.0; 0.0; 0.0; 0.0
7.0; 0.0; 0.0; 0.0
19.0; 5.0; 0.0; 0.0
40.0; 38.0; 38.0; 45.0
84.0; 119.0; 125.0; 129.0
139.0; 185.0; 199.0; 217.0
208.0; 272.0; 256.0; 254.0
250.0; 326.0; 308.0; 265.0
226.0; 316.0; 288.0; 255.0
162.0; 247.0; 248.0; 243.0
69.0; 132.0; 147.0; 130.0
0.0; 0.0; 0.0; 0.0
0.0; 0.0; 0.0; 0.0
0.0; 0.0; 0.0; 0.0
0.0; 0.0; 0.0; 0.0
0.0; 0.0; 0.0; 0.0
0.0; 0.0; 0.0; 0.0
0.0; 0.0; 0.0; 0.0
8.0; 0.0; 0.0; 0.0
23.0; 9.0; 3.0; 0.0
51.0; 55.0; 64.0; 83.0
104.0; 131.0; 131.0; 138.0
165.0; 213.0; 239.0; 231.0
239.0; 295.0; 279.0; 256.0
252.0; 312.0; 289.0; 257.0
210.0; 278.0; 259.0; 251.0
138.0; 197.0; 221.0; 241.0
23.0; 67.0; 114.0; 125.0
0.0; 0.0; 0.0; 0.0
0.0; 0.0; 0.0; 0.0
0.0; 0.0; 0.0; 0.0
0.0; 0.0; 0.0; 0.0
0.0; 0.0; 0.0; 0.0
0.0; 0.0; 0.0; 0.0
2.0; 0.0; 0.0; 0.0
14.0; 2.0; 0.0; 0.0
29.0; 27.0; 21.0; 21.0
69.0; 90.0; 115.0; 128.0
130.0; 157.0; 152.0; 140.0
190.0; 257.0; 256.0; 259.0
253.0; 340.0; 324.0; 301.0
237.0; 328.0; 310.0; 268.0
177.0; 250.0; 249.0; 246.0
100.0; 163.0; 148.0; 136.0
0.0; 0.0; 0.0; 0.0
0.0; 0.0; 0.0; 0.0
0.0; 0.0; 0.0; 0.0
0.0; 0.0; 0.0; 0.0
0.0; 0.0; 0.0; 0.0
0.0; 0.0; 0.0; 0.0
0.0; 0.0; 0.0; 0.0
6.0; 0.0; 0.0; 0.0
18.0; 7.0; 0.0; 0.0
40.0; 46.0; 47.0; 60.0
85.0; 118.0; 130.0; 126.0
145.0; 186.0; 201.0; 222.0
216.0; 280.0; 253.0; 260.0
256.0; 311.0; 290.0; 254.0
221.0; 295.0; 257.0; 255.0
159.0; 229.0; 248.0; 253.0
54.0; 121.0; 137.0; 128.0
0.0; 0.0; 0.0; 0.0
0.0; 0.0; 0.0; 0.0
0.0; 0.0; 0.0; 0.0
0.0; 0.0; 0.0; 0.0
0.0; 0.0; 0.0; 0.0
0.0; 0.0; 0.0; 0.0
0.0; 0.0; 0.0; 0.0
15.0; 0.0; 0.0; 0.0
26.0; 12.0; 6.0; 0.0
57.0; 70.0; 84.0; 114.0
115.0; 145.0; 130.0; 133.0
177.0; 234.0; 254.0; 247.0
249.0; 332.0; 323.0; 299.0
255.0; 316.0; 308.0; 271.0
193.0; 263.0; 256.0; 241.0
126.0; 176.0; 183.0; 168.0
0.0; 17.0; 22.0; 16.0
0.0; 0.0; 0.0; 0.0
0.0; 0.0; 0.0; 0.0
0.0; 0.0; 0.0; 0.0
0.0; 0.0; 0.0; 0.0
0.0; 0.0; 0.0; 0.0
0.0; 0.0; 0.0; 0.0
2.0; 0.0; 0.0; 0.0
16.0; 4.0; 0.0; 0.0
32.0; 27.0; 25.0; 20.0
81.0; 108.0; 129.0; 131.0
137.0; 175.0; 187.0; 192.0
203.0; 261.0; 256.0; 255.0
249.0; 329.0; 312.0; 281.0
223.0; 309.0; 276.0; 252.0
166.0; 251.0; 254.0; 246.0
75.0; 133.0; 141.0; 131.0
0.0; 0.0; 0.0; 0.0
0.0; 0.0; 0.0; 0.0
0.0; 0.0; 0.0; 0.0
0.0; 0.0; 0.0; 0.0
0.0; 0.0; 0.0; 0.0
0.0; 0.0; 0.0; 0.0
0.0; 0.0; 0.0; 0.0
6.0; 0.0; 0.0; 0.0
23.0; 9.0; 2.0; 0.0
42.0; 43.0; 47.0; 51.0
99.0; 129.0; 131.0; 127.0
154.0; 202.0; 227.0; 249.0
221.0; 295.0; 268.0; 259.0
250.0; 314.0; 289.0; 256.0
218.0; 296.0; 257.0; 244.0
152.0; 228.0; 254.0; 222.0
43.0; 113.0; 134.0; 135.0
0.0; 0.0; 0.0; 0.0
0.0; 0.0; 0.0; 0.0
0.0; 0.0; 0.0; 0.0
0.0; 0.0; 0.0; 0.0
0.0; 0.0; 0.0; 0.0
0.0; 0.0; 0.0; 0.0
2.0; 0.0; 0.0; 0.0
9.0; 0.0; 0.0; 0.0
19.0; 7.0; 0.0; 0.0
51.0; 58.0; 71.0; 94.0
113.0; 127.0; 138.0; 127.0
173.0; 220.0; 249.0; 241.0
245.0; 300.0; 284.0; 254.0
253.0; 312.0; 285.0; 252.0
206.0; 272.0; 255.0; 240.0
136.0; 182.0; 194.0; 200.0
10.0; 37.0; 57.0; 76.0
0.0; 0.0; 0.0; 0.0
0.0; 0.0; 0.0; 0.0
0.0; 0.0; 0.0; 0.0
0.0; 0.0; 0.0; 0.0
0.0; 0.0; 0.0; 0.0
0.0; 0.0; 0.0; 0.0
2.0; 0.0; 0.0; 0.0
15.0; 4.0; 0.0; 0.0
25.0; 22.0; 12.0; 6.0
67.0; 83.0; 110.0; 117.0
127.0; 146.0; 142.0; 130.0
188.0; 253.0; 249.0; 249.0
245.0; 329.0; 307.0; 270.0
241.0; 309.0; 288.0; 258.0
182.0; 260.0; 253.0; 254.0
109.0; 182.0; 182.0; 167.0
0.0; 1.0; 2.0; 0.0
0.0; 0.0; 0.0; 0.0
0.0; 0.0; 0.0; 0.0
0.0; 0.0; 0.0; 0.0
0.0; 0.0; 0.0; 0.0
0.0; 0.0; 0.0; 0.0
0.0; 0.0; 0.0; 0.0
4.0; 0.0; 0.0; 0.0
11.0; 1.0; 0.0; 0.0
32.0; 26.0; 23.0; 18.0
80.0; 103.0; 125.0; 127.0
139.0; 180.0; 187.0; 195.0
210.0; 269.0; 254.0; 255.0
251.0; 330.0; 320.0; 288.0
220.0; 306.0; 273.0; 259.0
160.0; 245.0; 243.0; 238.0
54.0; 127.0; 136.0; 132.0
0.0; 0.0; 0.0; 0.0
0.0; 0.0; 0.0; 0.0
0.0; 0.0; 0.0; 0.0
0.0; 0.0; 0.0; 0.0
0.0; 0.0; 0.0; 0.0
0.0; 0.0; 0.0; 0.0
0.0; 0.0; 0.0; 0.0
5.0; 0.0; 0.0; 0.0
22.0; 10.0; 2.0; 0.0
50.0; 58.0; 70.0; 92.0
108.0; 134.0; 139.0; 127.0
169.0; 213.0; 243.0; 239.0
247.0; 304.0; 288.0; 256.0
256.0; 320.0; 302.0; 266.0
211.0; 282.0; 249.0; 256.0
133.0; 190.0; 195.0; 201.0
22.0; 58.0; 89.0; 121.0
0.0; 0.0; 0.0; 0.0
0.0; 0.0; 0.0; 0.0
0.0; 0.0; 0.0; 0.0
0.0; 0.0; 0.0; 0.0
0.0; 0.0; 0.0; 0.0
0.0; 0.0; 0.0; 0.0
3.0; 0.0; 0.0; 0.0
10.0; 0.0; 0.0; 0.0
30.0; 23.0; 22.0; 22.0
74.0; 101.0; 131.0; 126.0
134.0; 171.0; 177.0; 183.0
203.0; 257.0; 263.0; 253.0
251.0; 312.0; 296.0; 265.0
236.0; 318.0; 289.0; 258.0
170.0; 252.0; 253.0; 238.0
83.0; 145.0; 136.0; 137.0
0.0; 0.0; 0.0; 0.0
0.0; 0.0; 0.0; 0.0
0.0; 0.0; 0.0; 0.0
0.0; 0.0; 0.0; 0.0
0.0; 0.0; 0.0; 0.0
0.0; 0.0; 0.0; 0.0
0.0; 0.0; 0.0; 0.0
7.0; 0.0; 0.0; 0.0
22.0; 8.0; 3.0; 0.0
38.0; 40.0; 39.0; 44.0
86.0; 121.0; 130.0; 123.0
148.0; 192.0; 208.0; 231.0
219.0; 286.0; 260.0; 258.0
251.0; 329.0; 311.0; 266.0
215.0; 298.0; 266.0; 245.0
152.0; 227.0; 253.0; 251.0
44.0; 116.0; 129.0; 130.0
0.0; 0.0; 0.0; 0.0
0.0; 0.0; 0.0; 0.0
0.0; 0.0; 0.0; 0.0
0.0; 0.0; 0.0; 0.0
0.0; 0.0; 0.0; 0.0
0.0; 0.0; 0.0; 0.0
1.0; 0.0; 0.0; 0.0
12.0; 0.0; 0.0; 0.0
22.0; 17.0; 12.0; 7.0
54.0; 67.0; 86.0; 112.0
128.0; 135.0; 157.0; 141.0
183.0; 236.0; 255.0; 247.0
249.0; 336.0; 319.0; 288.0
247.0; 336.0; 329.0; 293.0
186.0; 259.0; 261.0; 242.0
118.0; 164.0; 162.0; 144.0
0.0; 8.0; 4.0; 0.0
0.0; 0.0; 0.0; 0.0
0.0; 0.0; 0.0; 0.0
0.0; 0.0; 0.0; 0.0
0.0; 0.0; 0.0; 0.0
0.0; 0.0; 0.0; 0.0
0.0; 0.0; 0.0; 0.0
1.0; 0.0; 0.0; 0.0
8.0; 0.0; 0.0; 0.0
20.0; 8.0; 1.0; 0.0
55.0; 62.0; 74.0; 97.0
111.0; 133.0; 132.0; 134.0
177.0; 225.0; 252.0; 258.0
249.0; 309.0; 287.0; 256.0
257.0; 321.0; 303.0; 267.0
198.0; 264.0; 258.0; 257.0
131.0; 178.0; 185.0; 182.0
7.0; 33.0; 47.0; 64.0
0.0; 0.0; 0.0; 0.0
0.0; 0.0; 0.0; 0.0
0.0; 0.0; 0.0; 0.0
0.0; 0.0; 0.0; 0.0
0.0; 0.0; 0.0; 0.0
0.0; 0.0; 0.0; 0.0
2.0; 0.0; 0.0; 0.0
14.0; 1.0; 0.0; 0.0
29.0; 22.0; 17.0; 15.0
74.0; 98.0; 127.0; 122.0
135.0; 165.0; 172.0; 170.0
200.0; 254.0; 253.0; 255.0
251.0; 310.0; 290.0; 260.0
238.0; 321.0; 289.0; 257.0
184.0; 254.0; 249.0; 247.0
103.0; 168.0; 154.0; 136.0
0.0; 0.0; 0.0; 0.0
0.0; 0.0; 0.0; 0.0
0.0; 0.0; 0.0; 0.0
0.0; 0.0; 0.0; 0.0
0.0; 0.0; 0.0; 0.0
0.0; 0.0; 0.0; 0.0
0.0; 0.0; 0.0; 0.0
5.0; 0.0; 0.0; 0.0
17.0; 6.0; 0.0; 0.0
42.0; 42.0; 44.0; 54.0
89.0; 123.0; 137.0; 131.0
139.0; 179.0; 187.0; 197.0
211.0; 268.0; 266.0; 260.0
253.0; 334.0; 322.0; 296.0
228.0; 309.0; 277.0; 254.0
155.0; 240.0; 259.0; 244.0
59.0; 129.0; 147.0; 128.0
0.0; 0.0; 0.0; 0.0
0.0; 0.0; 0.0; 0.0
0.0; 0.0; 0.0; 0.0
0.0; 0.0; 0.0; 0.0
0.0; 0.0; 0.0; 0.0
0.0; 0.0; 0.0; 0.0
1.0; 0.0; 0.0; 0.0
7.0; 0.0; 0.0; 0.0
24.0; 15.0; 7.0; 1.0
55.0; 64.0; 79.0; 106.0
115.0; 132.0; 131.0; 133.0
181.0; 232.0; 250.0; 239.0
249.0; 334.0; 323.0; 296.0
252.0; 321.0; 314.0; 278.0
200.0; 270.0; 253.0; 240.0
125.0; 194.0; 201.0; 199.0
4.0; 44.0; 67.0; 96.0
0.0; 0.0; 0.0; 0.0
0.0; 0.0; 0.0; 0.0
0.0; 0.0; 0.0; 0.0
0.0; 0.0; 0.0; 0.0
0.0; 0.0; 0.0; 0.0
0.0; 0.0; 0.0; 0.0
1.0; 0.0; 0.0; 0.0
8.0; 0.0; 0.0; 0.0
24.0; 10.0; 2.0; 0.0
60.0; 72.0; 85.0; 118.0
126.0; 134.0; 154.0; 147.0
181.0; 233.0; 257.0; 241.0
253.0; 336.0; 328.0; 297.0
249.0; 337.0; 332.0; 295.0
193.0; 263.0; 265.0; 246.0
122.0; 186.0; 192.0; 184.0
0.0; 24.0; 39.0; 41.0
0.0; 0.0; 0.0; 0.0
0.0; 0.0; 0.0; 0.0
0.0; 0.0; 0.0; 0.0
0.0; 0.0; 0.0; 0.0
0.0; 0.0; 0.0; 0.0
0.0; 0.0; 0.0; 0.0
7.0; 0.0; 0.0; 0.0
20.0; 6.0; 0.0; 0.0
45.0; 42.0; 43.0; 51.0
87.0; 122.0; 132.0; 130.0
144.0; 183.0; 197.0; 212.0
206.0; 266.0; 265.0; 259.0
250.0; 316.0; 295.0; 263.0
236.0; 320.0; 281.0; 253.0
168.0; 253.0; 255.0; 241.0
68.0; 128.0; 145.0; 125.0
0.0; 0.0; 0.0; 0.0
0.0; 0.0; 0.0; 0.0
0.0; 0.0; 0.0; 0.0
0.0; 0.0; 0.0; 0.0
0.0; 0.0; 0.0; 0.0
0.0; 0.0; 0.0; 0.0
0.0; 0.0; 0.0; 0.0
11.0; 0.0; 0.0; 0.0
18.0; 8.0; 0.0; 0.0
50.0; 58.0; 66.0; 85.0
108.0; 130.0; 137.0; 133.0
166.0; 210.0; 238.0; 238.0
245.0; 300.0; 283.0; 258.0
253.0; 309.0; 287.0; 258.0
215.0; 283.0; 255.0; 254.0
131.0; 210.0; 221.0; 236.0
17.0; 72.0; 115.0; 130.0
0.0; 0.0; 0.0; 0.0
0.0; 0.0; 0.0; 0.0
0.0; 0.0; 0.0; 0.0
0.0; 0.0; 0.0; 0.0
0.0; 0.0; 0.0; 0.0
0.0; 0.0; 0.0; 0.0
0.0; 0.0; 0.0; 0.0
10.0; 0.0; 0.0; 0.0
33.0; 29.0; 29.0; 30.0
79.0; 109.0; 129.0; 120.0
132.0; 195.0; 203.0; 218.0
204.0; 273.0; 258.0; 254.0
251.0; 335.0; 322.0; 288.0
230.0; 322.0; 297.0; 256.0
168.0; 254.0; 244.0; 254.0
75.0; 137.0; 147.0; 127.0
0.0; 0.0; 0.0; 0.0
0.0; 0.0; 0.0; 0.0
0.0; 0.0; 0.0; 0.0
0.0; 0.0; 0.0; 0.0
0.0; 0.0; 0.0; 0.0
0.0; 0.0; 0.0; 0.0
0.0; 0.0; 0.0; 0.0
3.0; 0.0; 0.0; 0.0
21.0; 9.0; 2.0; 0.0
41.0; 42.0; 47.0; 53.0
97.0; 129.0; 126.0; 138.0
153.0; 202.0; 218.0; 248.0
226.0; 301.0; 271.0; 268.0
252.0; 316.0; 297.0; 260.0
222.0; 297.0; 263.0; 246.0
152.0; 222.0; 245.0; 245.0
46.0; 116.0; 126.0; 131.0
0.0; 0.0; 0.0; 0.0
0.0; 0.0; 0.0; 0.0
0.0; 0.0; 0.0; 0.0
0.0; 0.0; 0.0; 0.0
0.0; 0.0; 0.0; 0.0
0.0; 0.0; 0.0; 0.0
1.0; 0.0; 0.0; 0.0
15.0; 1.0; 0.0; 0.0
23.0; 12.0; 4.0; 0.0
53.0; 63.0; 73.0; 98.0
118.0; 128.0; 135.0; 144.0
185.0; 229.0; 256.0; 237.0
253.0; 306.0; 289.0; 258.0
251.0; 331.0; 311.0; 265.0
191.0; 259.0; 254.0; 249.0
129.0; 174.0; 180.0; 174.0
3.0; 20.0; 24.0; 25.0
0.0; 0.0; 0.0; 0.0
0.0; 0.0; 0.0; 0.0
0.0; 0.0; 0.0; 0.0
0.0; 0.0; 0.0; 0.0
0.0; 0.0; 0.0; 0.0
0.0; 0.0; 0.0; 0.0
6.0; 0.0; 0.0; 0.0
17.0; 5.0; 0.0; 0.0
38.0; 38.0; 35.0; 39.0
78.0; 109.0; 133.0; 120.0
134.0; 172.0; 178.0; 175.0
203.0; 259.0; 260.0; 254.0
250.0; 309.0; 284.0; 253.0
239.0; 295.0; 261.0; 246.0
176.0; 249.0; 245.0; 252.0
83.0; 143.0; 135.0; 135.0
0.0; 0.0; 0.0; 0.0
0.0; 0.0; 0.0; 0.0
0.0; 0.0; 0.0; 0.0
0.0; 0.0; 0.0; 0.0
0.0; 0.0; 0.0; 0.0
0.0; 0.0; 0.0; 0.0
0.0; 0.0; 0.0; 0.0
9.0; 0.0; 0.0; 0.0
23.0; 11.0; 4.0; 0.0
54.0; 58.0; 69.0; 87.0
107.0; 134.0; 138.0; 131.0
171.0; 221.0; 243.0; 253.0
245.0; 305.0; 280.0; 253.0
258.0; 319.0; 299.0; 258.0
214.0; 281.0; 255.0; 254.0
136.0; 194.0; 204.0; 212.0
24.0; 70.0; 109.0; 120.0
0.0; 0.0; 0.0; 0.0
0.0; 0.0; 0.0; 0.0
0.0; 0.0; 0.0; 0.0
0.0; 0.0; 0.0; 0.0
0.0; 0.0; 0.0; 0.0
0.0; 0.0; 0.0; 0.0
3.0; 0.0; 0.0; 0.0
10.0; 1.0; 0.0; 0.0
27.0; 24.0; 19.0; 20.0
75.0; 100.0; 131.0; 131.0
127.0; 179.0; 189.0; 194.0
200.0; 259.0; 256.0; 258.0
247.0; 327.0; 312.0; 280.0
233.0; 324.0; 301.0; 262.0
168.0; 251.0; 257.0; 252.0
84.0; 147.0; 133.0; 134.0
0.0; 0.0; 0.0; 0.0
0.0; 0.0; 0.0; 0.0
0.0; 0.0; 0.0; 0.0
0.0; 0.0; 0.0; 0.0
0.0; 0.0; 0.0; 0.0
0.0; 0.0; 0.0; 0.0
0.0; 0.0; 0.0; 0.0
6.0; 0.0; 0.0; 0.0
16.0; 1.0; 0.0; 0.0
41.0; 41.0; 45.0; 57.0
86.0; 117.0; 133.0; 125.0
147.0; 188.0; 205.0; 228.0
214.0; 277.0; 253.0; 257.0
251.0; 330.0; 310.0; 273.0
216.0; 300.0; 268.0; 249.0
157.0; 240.0; 255.0; 245.0
55.0; 129.0; 133.0; 128.0
0.0; 0.0; 0.0; 0.0
0.0; 0.0; 0.0; 0.0
0.0; 0.0; 0.0; 0.0
0.0; 0.0; 0.0; 0.0
0.0; 0.0; 0.0; 0.0
0.0; 0.0; 0.0; 0.0
0.0; 0.0; 0.0; 0.0
13.0; 1.0; 0.0; 0.0
26.0; 20.0; 14.0; 8.0
64.0; 80.0; 104.0; 132.0
130.0; 153.0; 154.0; 153.0
192.0; 248.0; 261.0; 251.0
252.0; 312.0; 299.0; 265.0
246.0; 331.0; 310.0; 268.0
183.0; 260.0; 248.0; 254.0
111.0; 164.0; 157.0; 131.0
0.0; 1.0; 0.0; 0.0
0.0; 0.0; 0.0; 0.0
0.0; 0.0; 0.0; 0.0
0.0; 0.0; 0.0; 0.0
0.0; 0.0; 0.0; 0.0
0.0; 0.0; 0.0; 0.0
0.0; 0.0; 0.0; 0.0
2.0; 0.0; 0.0; 0.0
10.0; 0.0; 0.0; 0.0
35.0; 24.0; 23.0; 22.0
81.0; 105.0; 128.0; 128.0
134.0; 194.0; 201.0; 218.0
204.0; 268.0; 263.0; 262.0
250.0; 329.0; 308.0; 268.0
230.0; 318.0; 286.0; 257.0
171.0; 256.0; 246.0; 248.0
78.0; 146.0; 136.0; 128.0
0.0; 0.0; 0.0; 0.0
0.0; 0.0; 0.0; 0.0
0.0; 0.0; 0.0; 0.0
0.0; 0.0; 0.0; 0.0
0.0; 0.0; 0.0; 0.0
0.0; 0.0; 0.0; 0.0
0.0; 0.0; 0.0; 0.0
4.0; 0.0; 0.0; 0.0
21.0; 9.0; 2.0; 0.0
41.0; 42.0; 43.0; 50.0
90.0; 129.0; 132.0; 133.0
148.0; 195.0; 213.0; 239.0
220.0; 290.0; 264.0; 253.0
251.0; 314.0; 299.0; 265.0
224.0; 302.0; 269.0; 257.0
155.0; 228.0; 249.0; 252.0
50.0; 120.0; 137.0; 133.0
0.0; 0.0; 0.0; 0.0
0.0; 0.0; 0.0; 0.0
0.0; 0.0; 0.0; 0.0
0.0; 0.0; 0.0; 0.0
0.0; 0.0; 0.0; 0.0
0.0; 0.0; 0.0; 0.0
0.0; 0.0; 0.0; 0.0
8.0; 0.0; 0.0; 0.0
24.0; 15.0; 10.0; 4.0
57.0; 73.0; 88.0; 119.0
118.0; 149.0; 132.0; 141.0
181.0; 241.0; 261.0; 242.0
248.0; 317.0; 300.0; 265.0
255.0; 320.0; 303.0; 260.0
198.0; 264.0; 255.0; 239.0
125.0; 174.0; 176.0; 163.0
0.0; 16.0; 14.0; 6.0
0.0; 0.0; 0.0; 0.0
0.0; 0.0; 0.0; 0.0
0.0; 0.0; 0.0; 0.0
0.0; 0.0; 0.0; 0.0
0.0; 0.0; 0.0; 0.0
0.0; 0.0; 0.0; 0.0
1.0; 0.0; 0.0; 0.0
17.0; 2.0; 0.0; 0.0
26.0; 22.0; 13.0; 9.0
72.0; 92.0; 117.0; 131.0
132.0; 159.0; 159.0; 156.0
193.0; 259.0; 252.0; 252.0
251.0; 341.0; 326.0; 296.0
244.0; 313.0; 298.0; 255.0
181.0; 255.0; 250.0; 256.0
107.0; 178.0; 169.0; 154.0
0.0; 0.0; 0.0; 0.0
0.0; 0.0; 0.0; 0.0
0.0; 0.0; 0.0; 0.0
0.0; 0.0; 0.0; 0.0
0.0; 0.0; 0.0; 0.0
0.0; 0.0; 0.0; 0.0
0.0; 0.0; 0.0; 0.0
5.0; 0.0; 0.0; 0.0
10.0; 1.0; 0.0; 0.0
38.0; 38.0; 37.0; 44.0
78.0; 114.0; 119.0; 133.0
141.0; 185.0; 199.0; 217.0
213.0; 276.0; 249.0; 262.0
251.0; 337.0; 316.0; 285.0
228.0; 316.0; 285.0; 255.0
160.0; 245.0; 254.0; 237.0
51.0; 123.0; 136.0; 132.0
0.0; 0.0; 0.0; 0.0
0.0; 0.0; 0.0; 0.0
0.0; 0.0; 0.0; 0.0
0.0; 0.0; 0.0; 0.0
0.0; 0.0; 0.0; 0.0
0.0; 0.0; 0.0; 0.0
0.0; 0.0; 0.0; 0.0
7.0; 0.0; 0.0; 0.0
22.0; 12.0; 4.0; 0.0
51.0; 61.0; 73.0; 97.0
104.0; 129.0; 128.0; 133.0
162.0; 203.0; 217.0; 246.0
242.0; 293.0; 266.0; 267.0
253.0; 308.0; 280.0; 259.0
207.0; 273.0; 246.0; 258.0
136.0; 187.0; 199.0; 203.0
15.0; 44.0; 70.0; 92.0
0.0; 0.0; 0.0; 0.0
0.0; 0.0; 0.0; 0.0
0.0; 0.0; 0.0; 0.0
0.0; 0.0; 0.0; 0.0
0.0; 0.0; 0.0; 0.0
0.0; 0.0; 0.0; 0.0
2.0; 0.0; 0.0; 0.0
16.0; 1.0; 0.0; 0.0
29.0; 27.0; 24.0; 22.0
70.0; 92.0; 122.0; 116.0
132.0; 159.0; 164.0; 156.0
198.0; 250.0; 257.0; 247.0
251.0; 327.0; 316.0; 275.0
245.0; 310.0; 289.0; 259.0
179.0; 252.0; 253.0; 249.0
104.0; 173.0; 161.0; 138.0
0.0; 0.0; 0.0; 0.0
0.0; 0.0; 0.0; 0.0
0.0; 0.0; 0.0; 0.0
0.0; 0.0; 0.0; 0.0
0.0; 0.0; 0.0; 0.0
0.0; 0.0; 0.0; 0.0
0.0; 0.0; 0.0; 0.0
7.0; 0.0; 0.0; 0.0
19.0; 8.0; 1.0; 0.0
41.0; 45.0; 49.0; 61.0
87.0; 118.0; 133.0; 128.0
148.0; 187.0; 202.0; 222.0
217.0; 282.0; 256.0; 265.0
251.0; 310.0; 288.0; 255.0
226.0; 304.0; 262.0; 256.0
158.0; 241.0; 257.0; 237.0
62.0; 127.0; 142.0; 131.0
0.0; 0.0; 0.0; 0.0
0.0; 0.0; 0.0; 0.0
0.0; 0.0; 0.0; 0.0
0.0; 0.0; 0.0; 0.0
0.0; 0.0; 0.0; 0.0
0.0; 0.0; 0.0; 0.0
0.0; 0.0; 0.0; 0.0
3.0; 0.0; 0.0; 0.0
22.0; 11.0; 4.0; 0.0
52.0; 60.0; 73.0; 99.0
112.0; 133.0; 141.0; 135.0
169.0; 213.0; 238.0; 259.0
247.0; 305.0; 290.0; 261.0
254.0; 312.0; 294.0; 259.0
201.0; 266.0; 260.0; 259.0
135.0; 183.0; 194.0; 195.0
16.0; 49.0; 74.0; 104.0
0.0; 0.0; 0.0; 0.0
0.0; 0.0; 0.0; 0.0
0.0; 0.0; 0.0; 0.0
0.0; 0.0; 0.0; 0.0
0.0; 0.0; 0.0; 0.0
0.0; 0.0; 0.0; 0.0
2.0; 0.0; 0.0; 0.0
17.0; 3.0; 0.0; 0.0
32.0; 26.0; 20.0; 19.0
82.0; 107.0; 128.0; 136.0
132.0; 189.0; 194.0; 203.0
201.0; 271.0; 255.0; 257.0
251.0; 336.0; 325.0; 299.0
234.0; 325.0; 303.0; 259.0
173.0; 255.0; 254.0; 254.0
79.0; 142.0; 136.0; 132.0
0.0; 0.0; 0.0; 0.0
0.0; 0.0; 0.0; 0.0
0.0; 0.0; 0.0; 0.0
0.0; 0.0; 0.0; 0.0
0.0; 0.0; 0.0; 0.0
0.0; 0.0; 0.0; 0.0
0.0; 0.0; 0.0; 0.0
7.0; 0.0; 0.0; 0.0
15.0; 3.0; 0.0; 0.0
40.0; 39.0; 37.0; 43.0
92.0; 128.0; 132.0; 128.0
147.0; 191.0; 204.0; 218.0
223.0; 291.0; 265.0; 256.0
251.0; 313.0; 297.0; 266.0
219.0; 293.0; 254.0; 254.0
147.0; 219.0; 243.0; 233.0
38.0; 103.0; 133.0; 127.0
0.0; 0.0; 0.0; 0.0
0.0; 0.0; 0.0; 0.0
0.0; 0.0; 0.0; 0.0
0.0; 0.0; 0.0; 0.0
0.0; 0.0; 0.0; 0.0
0.0; 0.0; 0.0; 0.0
1.0; 0.0; 0.0; 0.0
8.0; 0.0; 0.0; 0.0
20.0; 8.0; 1.0; 0.0
52.0; 58.0; 69.0; 90.0
111.0; 135.0; 140.0; 130.0
169.0; 211.0; 234.0; 251.0
247.0; 306.0; 290.0; 263.0
255.0; 313.0; 292.0; 261.0
209.0; 273.0; 254.0; 248.0
132.0; 188.0; 203.0; 214.0
19.0; 51.0; 81.0; 117.0
0.0; 0.0; 0.0; 0.0
0.0; 0.0; 0.0; 0.0
0.0; 0.0; 0.0; 0.0
0.0; 0.0; 0.0; 0.0
0.0; 0.0; 0.0; 0.0
0.0; 0.0; 0.0; 0.0
4.0; 0.0; 0.0; 0.0
16.0; 4.0; 0.0; 0.0
27.0; 23.0; 13.0; 12.0
77.0; 102.0; 133.0; 125.0
131.0; 161.0; 170.0; 168.0
195.0; 257.0; 260.0; 260.0
250.0; 332.0; 318.0; 287.0
233.0; 323.0; 299.0; 262.0
168.0; 253.0; 252.0; 251.0
76.0; 138.0; 137.0; 132.0
0.0; 0.0; 0.0; 0.0
0.0; 0.0; 0.0; 0.0
0.0; 0.0; 0.0; 0.0
0.0; 0.0; 0.0; 0.0
0.0; 0.0; 0.0; 0.0
0.0; 0.0; 0.0; 0.0
0.0; 0.0; 0.0; 0.0
5.0; 0.0; 0.0; 0.0
18.0; 6.0; 0.0; 0.0
39.0; 37.0; 35.0; 40.0
93.0; 127.0; 130.0; 131.0
152.0; 197.0; 217.0; 246.0
228.0; 299.0; 272.0; 269.0
252.0; 337.0; 319.0; 281.0
228.0; 313.0; 280.0; 254.0
157.0; 245.0; 243.0; 237.0
49.0; 129.0; 136.0; 128.0
0.0; 0.0; 0.0; 0.0
0.0; 0.0; 0.0; 0.0
0.0; 0.0; 0.0; 0.0
0.0; 0.0; 0.0; 0.0
0.0; 0.0; 0.0; 0.0
0.0; 0.0; 0.0; 0.0
2.0; 0.0; 0.0; 0.0
15.0; 1.0; 0.0; 0.0
26.0; 21.0; 15.0; 12.0
73.0; 91.0; 118.0; 131.0
134.0; 159.0; 159.0; 153.0
194.0; 257.0; 251.0; 255.0
250.0; 314.0; 299.0; 266.0
246.0; 308.0; 283.0; 254.0
182.0; 255.0; 243.0; 252.0
109.0; 184.0; 174.0; 160.0
0.0; 4.0; 1.0; 0.0
0.0; 0.0; 0.0; 0.0
0.0; 0.0; 0.0; 0.0
0.0; 0.0; 0.0; 0.0
0.0; 0.0; 0.0; 0.0
0.0; 0.0; 0.0; 0.0
0.0; 0.0; 0.0; 0.0
5.0; 0.0; 0.0; 0.0
19.0; 3.0; 0.0; 0.0
40.0; 38.0; 42.0; 47.0
82.0; 113.0; 127.0; 127.0
145.0; 192.0; 205.0; 228.0
213.0; 283.0; 258.0; 267.0
255.0; 315.0; 297.0; 268.0
231.0; 312.0; 279.0; 250.0
169.0; 248.0; 254.0; 238.0
69.0; 134.0; 131.0; 128.0
0.0; 0.0; 0.0; 0.0
0.0; 0.0; 0.0; 0.0
0.0; 0.0; 0.0; 0.0
0.0; 0.0; 0.0; 0.0
0.0; 0.0; 0.0; 0.0
0.0; 0.0; 0.0; 0.0
0.0; 0.0; 0.0; 0.0
12.0; 0.0; 0.0; 0.0
23.0; 15.0; 5.0; 2.0
55.0; 65.0; 79.0; 106.0
121.0; 137.0; 137.0; 132.0
186.0; 232.0; 251.0; 238.0
248.0; 329.0; 314.0; 281.0
250.0; 349.0; 342.0; 318.0
195.0; 271.0; 266.0; 255.0
127.0; 178.0; 181.0; 184.0
7.0; 30.0; 44.0; 54.0
0.0; 0.0; 0.0; 0.0
0.0; 0.0; 0.0; 0.0
0.0; 0.0; 0.0; 0.0
0.0; 0.0; 0.0; 0.0
0.0; 0.0; 0.0; 0.0
0.0; 0.0; 0.0; 0.0
1.0; 0.0; 0.0; 0.0
13.0; 3.0; 0.0; 0.0
32.0; 30.0; 27.0; 29.0
74.0; 98.0; 123.0; 124.0
132.0; 163.0; 167.0; 159.0
201.0; 255.0; 258.0; 252.0
254.0; 309.0; 290.0; 254.0
237.0; 316.0; 282.0; 248.0
177.0; 258.0; 245.0; 249.0
96.0; 166.0; 149.0; 136.0
0.0; 0.0; 0.0; 0.0
0.0; 0.0; 0.0; 0.0
0.0; 0.0; 0.0; 0.0
0.0; 0.0; 0.0; 0.0
0.0; 0.0; 0.0; 0.0
0.0; 0.0; 0.0; 0.0
0.0; 0.0; 0.0; 0.0
7.0; 0.0; 0.0; 0.0
20.0; 9.0; 2.0; 0.0
43.0; 45.0; 51.0; 61.0
86.0; 117.0; 136.0; 123.0
145.0; 184.0; 199.0; 210.0
207.0; 267.0; 265.0; 262.0
253.0; 334.0; 319.0; 291.0
228.0; 313.0; 288.0; 254.0
159.0; 244.0; 245.0; 233.0
64.0; 133.0; 132.0; 128.0
0.0; 0.0; 0.0; 0.0
0.0; 0.0; 0.0; 0.0
0.0; 0.0; 0.0; 0.0
0.0; 0.0; 0.0; 0.0
0.0; 0.0; 0.0; 0.0
0.0; 0.0; 0.0; 0.0
1.0; 0.0; 0.0; 0.0
6.0; 0.0; 0.0; 0.0
22.0; 14.0; 5.0; 1.0
46.0; 50.0; 57.0; 69.0
109.0; 134.0; 128.0; 130.0
167.0; 217.0; 241.0; 236.0
243.0; 303.0; 287.0; 263.0
256.0; 308.0; 285.0; 256.0
203.0; 265.0; 262.0; 250.0
136.0; 187.0; 199.0; 204.0
26.0; 60.0; 92.0; 130.0
0.0; 0.0; 0.0; 0.0
0.0; 0.0; 0.0; 0.0
0.0; 0.0; 0.0; 0.0
0.0; 0.0; 0.0; 0.0
0.0; 0.0; 0.0; 0.0
0.0; 0.0; 0.0; 0.0
1.0; 0.0; 0.0; 0.0
16.0; 3.0; 0.0; 0.0
32.0; 28.0; 22.0; 27.0
73.0; 96.0; 124.0; 119.0
132.0; 158.0; 159.0; 149.0
193.0; 253.0; 245.0; 253.0
249.0; 335.0; 316.0; 283.0
234.0; 327.0; 304.0; 258.0
177.0; 250.0; 255.0; 248.0
93.0; 155.0; 150.0; 133.0
0.0; 0.0; 0.0; 0.0
0.0; 0.0; 0.0; 0.0
0.0; 0.0; 0.0; 0.0
0.0; 0.0; 0.0; 0.0
0.0; 0.0; 0.0; 0.0
0.0; 0.0; 0.0; 0.0
0.0; 0.0; 0.0; 0.0
2.0; 0.0; 0.0; 0.0
19.0; 4.0; 0.0; 0.0
41.0; 41.0; 40.0; 49.0
86.0; 120.0; 133.0; 128.0
142.0; 187.0; 204.0; 217.0
208.0; 272.0; 255.0; 261.0
247.0; 326.0; 304.0; 266.0
221.0; 304.0; 266.0; 255.0
159.0; 245.0; 239.0; 238.0
63.0; 132.0; 130.0; 128.0
0.0; 0.0; 0.0; 0.0
0.0; 0.0; 0.0; 0.0
0.0; 0.0; 0.0; 0.0
0.0; 0.0; 0.0; 0.0
0.0; 0.0; 0.0; 0.0
0.0; 0.0; 0.0; 0.0
0.0; 0.0; 0.0; 0.0
14.0; 0.0; 0.0; 0.0
25.0; 17.0; 9.0; 2.0
48.0; 58.0; 65.0; 87.0
109.0; 138.0; 129.0; 144.0
168.0; 212.0; 233.0; 254.0
238.0; 320.0; 299.0; 263.0
251.0; 317.0; 300.0; 259.0
194.0; 262.0; 252.0; 244.0
129.0; 209.0; 229.0; 246.0
11.0; 59.0; 102.0; 130.0
0.0; 0.0; 0.0; 0.0
0.0; 0.0; 0.0; 0.0
0.0; 0.0; 0.0; 0.0
0.0; 0.0; 0.0; 0.0
0.0; 0.0; 0.0; 0.0
0.0; 0.0; 0.0; 0.0
1.0; 0.0; 0.0; 0.0
17.0; 4.0; 0.0; 0.0
38.0; 38.0; 38.0; 43.0
82.0; 118.0; 126.0; 133.0
129.0; 193.0; 198.0; 214.0
197.0; 260.0; 259.0; 251.0
247.0; 306.0; 288.0; 254.0
227.0; 302.0; 267.0; 253.0
165.0; 248.0; 243.0; 250.0
65.0; 131.0; 130.0; 129.0
0.0; 0.0; 0.0; 0.0
0.0; 0.0; 0.0; 0.0
0.0; 0.0; 0.0; 0.0
0.0; 0.0; 0.0; 0.0
0.0; 0.0; 0.0; 0.0
0.0; 0.0; 0.0; 0.0
0.0; 0.0; 0.0; 0.0
4.0; 0.0; 0.0; 0.0
23.0; 9.0; 2.0; 0.0
46.0; 51.0; 58.0; 74.0
92.0; 123.0; 132.0; 128.0
147.0; 183.0; 196.0; 209.0
219.0; 282.0; 260.0; 264.0
247.0; 305.0; 273.0; 265.0
216.0; 280.0; 256.0; 249.0
141.0; 200.0; 221.0; 242.0
37.0; 92.0; 129.0; 136.0
0.0; 0.0; 0.0; 0.0
0.0; 0.0; 0.0; 0.0
0.0; 0.0; 0.0; 0.0
0.0; 0.0; 0.0; 0.0
0.0; 0.0; 0.0; 0.0
0.0; 0.0; 0.0; 0.0
3.0; 0.0; 0.0; 0.0
9.0; 0.0; 0.0; 0.0
20.0; 8.0; 1.0; 0.0
53.0; 57.0; 67.0; 87.0
104.0; 129.0; 128.0; 136.0
160.0; 205.0; 222.0; 245.0
230.0; 310.0; 282.0; 257.0
247.0; 334.0; 314.0; 273.0
196.0; 273.0; 254.0; 248.0
131.0; 183.0; 199.0; 210.0
17.0; 51.0; 86.0; 121.0
0.0; 0.0; 0.0; 0.0
0.0; 0.0; 0.0; 0.0
0.0; 0.0; 0.0; 0.0
0.0; 0.0; 0.0; 0.0
0.0; 0.0; 0.0; 0.0
0.0; 0.0; 0.0; 0.0
1.0; 0.0; 0.0; 0.0
15.0; 2.0; 0.0; 0.0
35.0; 30.0; 30.0; 30.0
77.0; 104.0; 131.0; 130.0
133.0; 173.0; 183.0; 193.0
203.0; 260.0; 254.0; 247.0
248.0; 306.0; 282.0; 256.0
230.0; 303.0; 264.0; 253.0
171.0; 250.0; 259.0; 246.0
81.0; 142.0; 136.0; 138.0
0.0; 0.0; 0.0; 0.0
0.0; 0.0; 0.0; 0.0
0.0; 0.0; 0.0; 0.0
0.0; 0.0; 0.0; 0.0
0.0; 0.0; 0.0; 0.0
0.0; 0.0; 0.0; 0.0
0.0; 0.0; 0.0; 0.0
7.0; 0.0; 0.0; 0.0
19.0; 9.0; 1.0; 0.0
44.0; 46.0; 54.0; 65.0
88.0; 128.0; 130.0; 136.0
140.0; 181.0; 196.0; 206.0
210.0; 270.0; 257.0; 262.0
241.0; 296.0; 268.0; 264.0
213.0; 275.0; 250.0; 256.0
149.0; 207.0; 233.0; 253.0
50.0; 113.0; 142.0; 127.0
0.0; 0.0; 0.0; 0.0
0.0; 0.0; 0.0; 0.0
0.0; 0.0; 0.0; 0.0
0.0; 0.0; 0.0; 0.0
0.0; 0.0; 0.0; 0.0
0.0; 0.0; 0.0; 0.0
1.0; 0.0; 0.0; 0.0
15.0; 1.0; 0.0; 0.0
24.0; 15.0; 6.0; 0.0
58.0; 71.0; 87.0; 119.0
121.0; 138.0; 130.0; 133.0
170.0; 213.0; 234.0; 254.0
245.0; 301.0; 280.0; 252.0
247.0; 301.0; 265.0; 252.0
193.0; 252.0; 257.0; 241.0
131.0; 177.0; 183.0; 183.0
7.0; 31.0; 48.0; 61.0
0.0; 0.0; 0.0; 0.0
0.0; 0.0; 0.0; 0.0
0.0; 0.0; 0.0; 0.0
0.0; 0.0; 0.0; 0.0
0.0; 0.0; 0.0; 0.0
0.0; 0.0; 0.0; 0.0
7.0; 0.0; 0.0; 0.0
18.0; 3.0; 0.0; 0.0
37.0; 36.0; 37.0; 43.0
81.0; 110.0; 127.0; 124.0
132.0; 179.0; 179.0; 182.0
203.0; 261.0; 250.0; 247.0
240.0; 295.0; 264.0; 259.0
216.0; 280.0; 257.0; 249.0
154.0; 221.0; 247.0; 251.0
68.0; 131.0; 148.0; 131.0
0.0; 0.0; 0.0; 0.0
0.0; 0.0; 0.0; 0.0
0.0; 0.0; 0.0; 0.0
0.0; 0.0; 0.0; 0.0
0.0; 0.0; 0.0; 0.0
0.0; 0.0; 0.0; 0.0
1.0; 0.0; 0.0; 0.0
12.0; 0.0; 0.0; 0.0
22.0; 15.0; 7.0; 0.0
48.0; 62.0; 65.0; 91.0
100.0; 128.0; 135.0; 133.0
152.0; 190.0; 198.0; 207.0
215.0; 282.0; 250.0; 258.0
237.0; 322.0; 287.0; 252.0
196.0; 263.0; 256.0; 254.0
132.0; 182.0; 193.0; 200.0
19.0; 51.0; 80.0; 116.0
0.0; 0.0; 0.0; 0.0
0.0; 0.0; 0.0; 0.0
0.0; 0.0; 0.0; 0.0
0.0; 0.0; 0.0; 0.0
0.0; 0.0; 0.0; 0.0
0.0; 0.0; 0.0; 0.0
2.0; 0.0; 0.0; 0.0
17.0; 3.0; 0.0; 0.0
27.0; 23.0; 15.0; 13.0
65.0; 86.0; 109.0; 113.0
128.0; 154.0; 151.0; 139.0
192.0; 249.0; 257.0; 249.0
231.0; 315.0; 282.0; 254.0
221.0; 303.0; 266.0; 246.0
165.0; 245.0; 256.0; 241.0
86.0; 148.0; 142.0; 130.0
0.0; 1.0; 0.0; 0.0
0.0; 0.0; 0.0; 0.0
0.0; 0.0; 0.0; 0.0
0.0; 0.0; 0.0; 0.0
0.0; 0.0; 0.0; 0.0
0.0; 0.0; 0.0; 0.0
0.0; 0.0; 0.0; 0.0
8.0; 0.0; 0.0; 0.0
20.0; 5.0; 0.0; 0.0
40.0; 40.0; 42.0; 50.0
82.0; 116.0; 124.0; 132.0
133.0; 178.0; 183.0; 188.0
200.0; 259.0; 250.0; 250.0
234.0; 316.0; 288.0; 248.0
210.0; 284.0; 256.0; 246.0
149.0; 219.0; 250.0; 250.0
59.0; 130.0; 134.0; 126.0
0.0; 0.0; 0.0; 0.0
0.0; 0.0; 0.0; 0.0
0.0; 0.0; 0.0; 0.0
0.0; 0.0; 0.0; 0.0
0.0; 0.0; 0.0; 0.0
0.0; 0.0; 0.0; 0.0
3.0; 0.0; 0.0; 0.0
11.0; 0.0; 0.0; 0.0
24.0; 15.0; 5.0; 1.0
50.0; 55.0; 65.0; 77.0
102.0; 131.0; 123.0; 133.0
159.0; 201.0; 217.0; 240.0
221.0; 289.0; 259.0; 261.0
238.0; 320.0; 292.0; 258.0
186.0; 261.0; 249.0; 252.0
130.0; 193.0; 204.0; 213.0
29.0; 72.0; 112.0; 128.0
0.0; 0.0; 0.0; 0.0
0.0; 0.0; 0.0; 0.0
0.0; 0.0; 0.0; 0.0
0.0; 0.0; 0.0; 0.0
0.0; 0.0; 0.0; 0.0
0.0; 0.0; 0.0; 0.0
3.0; 0.0; 0.0; 0.0
17.0; 4.0; 0.0; 0.0
33.0; 30.0; 25.0; 25.0
76.0; 108.0; 128.0; 127.0
132.0; 168.0; 166.0; 160.0
198.0; 255.0; 253.0; 253.0
228.0; 302.0; 264.0; 253.0
210.0; 277.0; 252.0; 241.0
150.0; 216.0; 248.0; 238.0
63.0; 129.0; 135.0; 128.0
0.0; 0.0; 0.0; 0.0
0.0; 0.0; 0.0; 0.0
0.0; 0.0; 0.0; 0.0
0.0; 0.0; 0.0; 0.0
0.0; 0.0; 0.0; 0.0
0.0; 0.0; 0.0; 0.0
1.0; 0.0; 0.0; 0.0
13.0; 0.0; 0.0; 0.0
17.0; 8.0; 0.0; 0.0
41.0; 43.0; 43.0; 51.0
98.0; 130.0; 127.0; 139.0
141.0; 184.0; 186.0; 198.0
212.0; 275.0; 256.0; 255.0
228.0; 303.0; 265.0; 253.0
196.0; 263.0; 252.0; 253.0
132.0; 188.0; 197.0; 205.0
26.0; 74.0; 111.0; 126.0
0.0; 0.0; 0.0; 0.0
0.0; 0.0; 0.0; 0.0
0.0; 0.0; 0.0; 0.0
0.0; 0.0; 0.0; 0.0
0.0; 0.0; 0.0; 0.0
0.0; 0.0; 0.0; 0.0
5.0; 0.0; 0.0; 0.0
17.0; 3.0; 0.0; 0.0
36.0; 31.0; 30.0; 35.0
73.0; 99.0; 130.0; 127.0
130.0; 173.0; 175.0; 173.0
185.0; 253.0; 251.0; 249.0
227.0; 310.0; 282.0; 259.0
218.0; 299.0; 261.0; 247.0
160.0; 239.0; 258.0; 249.0
81.0; 146.0; 128.0; 130.0
0.0; 0.0; 0.0; 0.0
0.0; 0.0; 0.0; 0.0
0.0; 0.0; 0.0; 0.0
0.0; 0.0; 0.0; 0.0
0.0; 0.0; 0.0; 0.0
0.0; 0.0; 0.0; 0.0
0.0; 0.0; 0.0; 0.0
8.0; 0.0; 0.0; 0.0
18.0; 6.0; 0.0; 0.0
40.0; 39.0; 40.0; 46.0
78.0; 110.0; 133.0; 125.0
132.0; 175.0; 181.0; 180.0
200.0; 256.0; 247.0; 256.0
231.0; 307.0; 274.0; 258.0
205.0; 271.0; 253.0; 253.0
145.0; 214.0; 244.0; 237.0
53.0; 116.0; 137.0; 125.0
0.0; 0.0; 0.0; 0.0
0.0; 0.0; 0.0; 0.0
0.0; 0.0; 0.0; 0.0
0.0; 0.0; 0.0; 0.0
0.0; 0.0; 0.0; 0.0
0.0; 0.0; 0.0; 0.0
2.0; 0.0; 0.0; 0.0
13.0; 1.0; 0.0; 0.0
26.0; 17.0; 10.0; 5.0
58.0; 69.0; 87.0; 118.0
115.0; 133.0; 126.0; 134.0
168.0; 215.0; 237.0; 231.0
234.0; 315.0; 289.0; 262.0
237.0; 325.0; 299.0; 255.0
190.0; 258.0; 250.0; 254.0
122.0; 193.0; 196.0; 197.0
13.0; 51.0; 77.0; 109.0
0.0; 0.0; 0.0; 0.0
0.0; 0.0; 0.0; 0.0
0.0; 0.0; 0.0; 0.0
0.0; 0.0; 0.0; 0.0
0.0; 0.0; 0.0; 0.0
0.0; 0.0; 0.0; 0.0
5.0; 0.0; 0.0; 0.0
20.0; 7.0; 0.0; 0.0
37.0; 36.0; 34.0; 35.0
79.0; 114.0; 115.0; 136.0
134.0; 180.0; 183.0; 185.0
205.0; 262.0; 258.0; 260.0
231.0; 302.0; 267.0; 259.0
208.0; 273.0; 248.0; 250.0
141.0; 197.0; 218.0; 233.0
51.0; 110.0; 137.0; 131.0
0.0; 0.0; 0.0; 0.0
0.0; 0.0; 0.0; 0.0
0.0; 0.0; 0.0; 0.0
0.0; 0.0; 0.0; 0.0
0.0; 0.0; 0.0; 0.0
0.0; 0.0; 0.0; 0.0
3.0; 0.0; 0.0; 0.0
13.0; 1.0; 0.0; 0.0
26.0; 13.0; 4.0; 1.0
56.0; 67.0; 80.0; 109.0
118.0; 132.0; 135.0; 134.0
169.0; 216.0; 238.0; 234.0
230.0; 309.0; 282.0; 259.0
237.0; 325.0; 294.0; 249.0
187.0; 259.0; 246.0; 248.0
124.0; 175.0; 178.0; 172.0
7.0; 32.0; 46.0; 61.0
0.0; 0.0; 0.0; 0.0
0.0; 0.0; 0.0; 0.0
0.0; 0.0; 0.0; 0.0
0.0; 0.0; 0.0; 0.0
0.0; 0.0; 0.0; 0.0
0.0; 0.0; 0.0; 0.0
8.0; 0.0; 0.0; 0.0
20.0; 6.0; 0.0; 0.0
34.0; 30.0; 26.0; 25.0
77.0; 105.0; 130.0; 130.0
134.0; 169.0; 178.0; 179.0
196.0; 256.0; 258.0; 254.0
235.0; 315.0; 288.0; 250.0
211.0; 283.0; 256.0; 254.0
146.0; 217.0; 241.0; 237.0
63.0; 128.0; 136.0; 135.0
0.0; 0.0; 0.0; 0.0
0.0; 0.0; 0.0; 0.0
0.0; 0.0; 0.0; 0.0
0.0; 0.0; 0.0; 0.0
0.0; 0.0; 0.0; 0.0
0.0; 0.0; 0.0; 0.0
2.0; 0.0; 0.0; 0.0
6.0; 0.0; 0.0; 0.0
22.0; 11.0; 2.0; 0.0
46.0; 54.0; 60.0; 78.0
95.0; 125.0; 130.0; 127.0
140.0; 173.0; 180.0; 181.0
207.0; 263.0; 255.0; 248.0
230.0; 304.0; 270.0; 258.0
192.0; 255.0; 251.0; 252.0
130.0; 193.0; 205.0; 223.0
36.0; 85.0; 130.0; 128.0
0.0; 0.0; 0.0; 0.0
0.0; 0.0; 0.0; 0.0
0.0; 0.0; 0.0; 0.0
0.0; 0.0; 0.0; 0.0
0.0; 0.0; 0.0; 0.0
0.0; 0.0; 0.0; 0.0
4.0; 0.0; 0.0; 0.0
11.0; 0.0; 0.0; 0.0
32.0; 25.0; 21.0; 20.0
62.0; 83.0; 104.0; 133.0
131.0; 149.0; 142.0; 132.0
186.0; 250.0; 248.0; 244.0
232.0; 318.0; 296.0; 259.0
223.0; 309.0; 271.0; 256.0
166.0; 252.0; 262.0; 242.0
86.0; 152.0; 142.0; 134.0
0.0; 5.0; 3.0; 0.0
0.0; 0.0; 0.0; 0.0
0.0; 0.0; 0.0; 0.0
0.0; 0.0; 0.0; 0.0
0.0; 0.0; 0.0; 0.0
0.0; 0.0; 0.0; 0.0
0.0; 0.0; 0.0; 0.0
6.0; 0.0; 0.0; 0.0
12.0; 1.0; 0.0; 0.0
33.0; 27.0; 25.0; 20.0
76.0; 105.0; 131.0; 130.0
130.0; 160.0; 163.0; 153.0
197.0; 254.0; 247.0; 249.0
234.0; 318.0; 289.0; 256.0
207.0; 283.0; 260.0; 246.0
150.0; 224.0; 248.0; 256.0
61.0; 130.0; 145.0; 130.0
0.0; 0.0; 0.0; 0.0
0.0; 0.0; 0.0; 0.0
0.0; 0.0; 0.0; 0.0
0.0; 0.0; 0.0; 0.0
0.0; 0.0; 0.0; 0.0
0.0; 0.0; 0.0; 0.0
1.0; 0.0; 0.0; 0.0
12.0; 0.0; 0.0; 0.0
22.0; 13.0; 5.0; 3.0
53.0; 59.0; 73.0; 95.0
99.0; 130.0; 126.0; 132.0
146.0; 185.0; 191.0; 201.0
214.0; 276.0; 258.0; 256.0
234.0; 313.0; 275.0; 252.0
194.0; 263.0; 253.0; 248.0
130.0; 185.0; 194.0; 195.0
26.0; 66.0; 104.0; 130.0
0.0; 0.0; 0.0; 0.0
0.0; 0.0; 0.0; 0.0
0.0; 0.0; 0.0; 0.0
0.0; 0.0; 0.0; 0.0
0.0; 0.0; 0.0; 0.0
0.0; 0.0; 0.0; 0.0
8.0; 0.0; 0.0; 0.0
20.0; 6.0; 0.0; 0.0
34.0; 28.0; 25.0; 20.0
77.0; 101.0; 133.0; 125.0
132.0; 162.0; 167.0; 160.0
194.0; 256.0; 254.0; 245.0
237.0; 322.0; 295.0; 256.0
217.0; 297.0; 258.0; 247.0
159.0; 240.0; 259.0; 241.0
73.0; 137.0; 137.0; 131.0
0.0; 0.0; 0.0; 0.0
0.0; 0.0; 0.0; 0.0
0.0; 0.0; 0.0; 0.0
0.0; 0.0; 0.0; 0.0
0.0; 0.0; 0.0; 0.0
0.0; 0.0; 0.0; 0.0
0.0; 0.0; 0.0; 0.0
12.0; 0.0; 0.0; 0.0
17.0; 4.0; 0.0; 0.0
41.0; 48.0; 51.0; 65.0
86.0; 125.0; 124.0; 124.0
134.0; 192.0; 201.0; 208.0
198.0; 261.0; 264.0; 251.0
225.0; 305.0; 274.0; 253.0
194.0; 260.0; 256.0; 250.0
132.0; 184.0; 205.0; 213.0
41.0; 89.0; 131.0; 132.0
0.0; 0.0; 0.0; 0.0
0.0; 0.0; 0.0; 0.0
0.0; 0.0; 0.0; 0.0
0.0; 0.0; 0.0; 0.0
0.0; 0.0; 0.0; 0.0
0.0; 0.0; 0.0; 0.0
4.0; 0.0; 0.0; 0.0
11.0; 0.0; 0.0; 0.0
25.0; 14.0; 6.0; 1.0
59.0; 69.0; 85.0; 119.0
115.0; 130.0; 130.0; 133.0
167.0; 214.0; 237.0; 230.0
234.0; 312.0; 288.0; 254.0
233.0; 321.0; 288.0; 261.0
176.0; 253.0; 250.0; 255.0
116.0; 179.0; 176.0; 172.0
4.0; 31.0; 42.0; 49.0
0.0; 0.0; 0.0; 0.0
0.0; 0.0; 0.0; 0.0
0.0; 0.0; 0.0; 0.0
0.0; 0.0; 0.0; 0.0
0.0; 0.0; 0.0; 0.0
0.0; 0.0; 0.0; 0.0
2.0; 0.0; 0.0; 0.0
17.0; 6.0; 0.0; 0.0
32.0; 31.0; 27.0; 27.0
80.0; 106.0; 128.0; 136.0
134.0; 171.0; 167.0; 165.0
198.0; 254.0; 255.0; 263.0
228.0; 302.0; 264.0; 256.0
207.0; 277.0; 250.0; 245.0
146.0; 216.0; 248.0; 241.0
53.0; 122.0; 146.0; 136.0
0.0; 0.0; 0.0; 0.0
0.0; 0.0; 0.0; 0.0
0.0; 0.0; 0.0; 0.0
0.0; 0.0; 0.0; 0.0
0.0; 0.0; 0.0; 0.0
0.0; 0.0; 0.0; 0.0
0.0; 0.0; 0.0; 0.0
9.0; 0.0; 0.0; 0.0
21.0; 11.0; 4.0; 0.0
47.0; 54.0; 63.0; 81.0
100.0; 127.0; 135.0; 136.0
148.0; 186.0; 201.0; 213.0
208.0; 268.0; 265.0; 262.0
228.0; 303.0; 273.0; 253.0
181.0; 253.0; 249.0; 260.0
127.0; 209.0; 227.0; 250.0
29.0; 90.0; 132.0; 130.0
0.0; 0.0; 0.0; 0.0
0.0; 0.0; 0.0; 0.0
0.0; 0.0; 0.0; 0.0
0.0; 0.0; 0.0; 0.0
0.0; 0.0; 0.0; 0.0
0.0; 0.0; 0.0; 0.0
6.0; 0.0; 0.0; 0.0
14.0; 0.0; 0.0; 0.0
32.0; 24.0; 15.0; 9.0
69.0; 91.0; 119.0; 127.0
127.0; 145.0; 139.0; 132.0
185.0; 248.0; 247.0; 241.0
235.0; 323.0; 302.0; 260.0
225.0; 307.0; 271.0; 256.0
167.0; 247.0; 256.0; 240.0
89.0; 154.0; 148.0; 137.0
0.0; 4.0; 3.0; 0.0
0.0; 0.0; 0.0; 0.0
0.0; 0.0; 0.0; 0.0
0.0; 0.0; 0.0; 0.0
0.0; 0.0; 0.0; 0.0
0.0; 0.0; 0.0; 0.0
0.0; 0.0; 0.0; 0.0
12.0; 0.0; 0.0; 0.0
22.0; 11.0; 4.0; 0.0
43.0; 52.0; 58.0; 74.0
86.0; 125.0; 127.0; 126.0
135.0; 173.0; 181.0; 181.0
202.0; 261.0; 254.0; 248.0
234.0; 315.0; 288.0; 251.0
203.0; 275.0; 254.0; 242.0
134.0; 187.0; 206.0; 209.0
36.0; 86.0; 123.0; 125.0
0.0; 0.0; 0.0; 0.0
0.0; 0.0; 0.0; 0.0
0.0; 0.0; 0.0; 0.0
0.0; 0.0; 0.0; 0.0
0.0; 0.0; 0.0; 0.0
0.0; 0.0; 0.0; 0.0
2.0; 0.0; 0.0; 0.0
11.0; 0.0; 0.0; 0.0
29.0; 21.0; 17.0; 12.0
69.0; 83.0; 111.0; 117.0
132.0; 149.0; 144.0; 132.0
185.0; 243.0; 241.0; 241.0
246.0; 307.0; 282.0; 248.0
237.0; 316.0; 273.0; 245.0
178.0; 255.0; 254.0; 237.0
109.0; 179.0; 179.0; 166.0
0.0; 9.0; 14.0; 5.0
0.0; 0.0; 0.0; 0.0
0.0; 0.0; 0.0; 0.0
0.0; 0.0; 0.0; 0.0
0.0; 0.0; 0.0; 0.0
0.0; 0.0; 0.0; 0.0
0.0; 0.0; 0.0; 0.0
8.0; 0.0; 0.0; 0.0
21.0; 10.0; 2.0; 0.0
38.0; 41.0; 40.0; 44.0
89.0; 122.0; 131.0; 127.0
129.0; 183.0; 187.0; 194.0
201.0; 259.0; 260.0; 255.0
233.0; 309.0; 279.0; 262.0
207.0; 276.0; 253.0; 249.0
140.0; 205.0; 230.0; 250.0
42.0; 102.0; 128.0; 131.0
0.0; 0.0; 0.0; 0.0
0.0; 0.0; 0.0; 0.0
0.0; 0.0; 0.0; 0.0
0.0; 0.0; 0.0; 0.0
0.0; 0.0; 0.0; 0.0
0.0; 0.0; 0.0; 0.0
4.0; 0.0; 0.0; 0.0
11.0; 0.0; 0.0; 0.0
27.0; 22.0; 17.0; 12.0
68.0; 86.0; 111.0; 119.0
131.0; 148.0; 142.0; 137.0
185.0; 243.0; 239.0; 238.0
240.0; 302.0; 274.0; 257.0
231.0; 310.0; 266.0; 255.0
173.0; 254.0; 240.0; 237.0
101.0; 173.0; 170.0; 150.0
0.0; 8.0; 9.0; 1.0
0.0; 0.0; 0.0; 0.0
0.0; 0.0; 0.0; 0.0
0.0; 0.0; 0.0; 0.0
0.0; 0.0; 0.0; 0.0
0.0; 0.0; 0.0; 0.0
0.0; 0.0; 0.0; 0.0
6.0; 0.0; 0.0; 0.0
18.0; 6.0; 1.0; 0.0
33.0; 30.0; 25.0; 26.0
76.0; 106.0; 130.0; 131.0
130.0; 163.0; 163.0; 158.0
197.0; 254.0; 252.0; 254.0
234.0; 316.0; 283.0; 251.0
214.0; 290.0; 255.0; 258.0
150.0; 221.0; 242.0; 248.0
61.0; 125.0; 133.0; 133.0
0.0; 0.0; 0.0; 0.0
0.0; 0.0; 0.0; 0.0
0.0; 0.0; 0.0; 0.0
0.0; 0.0; 0.0; 0.0
0.0; 0.0; 0.0; 0.0
0.0; 0.0; 0.0; 0.0
0.0; 0.0; 0.0; 0.0
6.0; 0.0; 0.0; 0.0
22.0; 11.0; 2.0; 0.0
46.0; 56.0; 62.0; 81.0
93.0; 126.0; 127.0; 129.0
138.0; 174.0; 179.0; 179.0
208.0; 263.0; 257.0; 247.0
233.0; 307.0; 273.0; 251.0
193.0; 258.0; 247.0; 260.0
135.0; 196.0; 213.0; 236.0
33.0; 82.0; 126.0; 128.0
0.0; 0.0; 0.0; 0.0
0.0; 0.0; 0.0; 0.0
0.0; 0.0; 0.0; 0.0
0.0; 0.0; 0.0; 0.0
0.0; 0.0; 0.0; 0.0
0.0; 0.0; 0.0; 0.0
7.0; 0.0; 0.0; 0.0
17.0; 3.0; 0.0; 0.0
35.0; 31.0; 29.0; 29.0
66.0; 90.0; 114.0; 131.0
127.0; 155.0; 147.0; 142.0
187.0; 245.0; 254.0; 240.0
239.0; 323.0; 301.0; 266.0
223.0; 305.0; 264.0; 249.0
162.0; 247.0; 242.0; 237.0
93.0; 171.0; 168.0; 146.0
0.0; 17.0; 22.0; 15.0
0.0; 0.0; 0.0; 0.0
0.0; 0.0; 0.0; 0.0
0.0; 0.0; 0.0; 0.0
0.0; 0.0; 0.0; 0.0
0.0; 0.0; 0.0; 0.0
1.0; 0.0; 0.0; 0.0
13.0; 0.0; 0.0; 0.0
18.0; 8.0; 0.0; 0.0
44.0; 52.0; 54.0; 69.0
98.0; 130.0; 135.0; 130.0
142.0; 175.0; 183.0; 191.0
212.0; 267.0; 261.0; 251.0
232.0; 304.0; 272.0; 255.0
194.0; 259.0; 249.0; 259.0
134.0; 197.0; 215.0; 238.0
32.0; 84.0; 122.0; 126.0
0.0; 0.0; 0.0; 0.0
0.0; 0.0; 0.0; 0.0
0.0; 0.0; 0.0; 0.0
0.0; 0.0; 0.0; 0.0
0.0; 0.0; 0.0; 0.0
0.0; 0.0; 0.0; 0.0
2.0; 0.0; 0.0; 0.0
9.0; 0.0; 0.0; 0.0
23.0; 10.0; 2.0; 0.0
55.0; 65.0; 78.0; 102.0
114.0; 129.0; 133.0; 135.0
167.0; 212.0; 231.0; 249.0
228.0; 303.0; 272.0; 263.0
236.0; 318.0; 282.0; 253.0
181.0; 253.0; 249.0; 251.0
122.0; 202.0; 213.0; 228.0
7.0; 46.0; 77.0; 116.0
0.0; 0.0; 0.0; 0.0
0.0; 0.0; 0.0; 0.0
0.0; 0.0; 0.0; 0.0
0.0; 0.0; 0.0; 0.0
0.0; 0.0; 0.0; 0.0
1.0; 0.0; 0.0; 0.0
11.0; 0.0; 0.0; 0.0
18.0; 11.0; 2.0; 0.0
35.0; 37.0; 35.0; 41.0
86.0; 119.0; 139.0; 130.0
132.0; 168.0; 168.0; 165.0
202.0; 258.0; 260.0; 257.0
228.0; 307.0; 273.0; 254.0
197.0; 262.0; 256.0; 258.0
126.0; 195.0; 212.0; 221.0
36.0; 98.0; 138.0; 128.0
0.0; 0.0; 0.0; 0.0
0.0; 0.0; 0.0; 0.0
0.0; 0.0; 0.0; 0.0
0.0; 0.0; 0.0; 0.0
0.0; 0.0; 0.0; 0.0
0.0; 0.0; 0.0; 0.0
2.0; 0.0; 0.0; 0.0
13.0; 2.0; 0.0; 0.0
31.0; 22.0; 17.0; 15.0
64.0; 85.0; 109.0; 118.0
119.0; 156.0; 143.0; 133.0
178.0; 241.0; 257.0; 254.0
233.0; 324.0; 294.0; 258.0
227.0; 313.0; 279.0; 254.0
171.0; 253.0; 249.0; 241.0
99.0; 171.0; 169.0; 149.0
0.0; 14.0; 20.0; 10.0
0.0; 0.0; 0.0; 0.0
0.0; 0.0; 0.0; 0.0
0.0; 0.0; 0.0; 0.0
0.0; 0.0; 0.0; 0.0
0.0; 0.0; 0.0; 0.0
0.0; 0.0; 0.0; 0.0
11.0; 0.0; 0.0; 0.0
16.0; 5.0; 0.0; 0.0
42.0; 46.0; 50.0; 61.0
86.0; 118.0; 130.0; 127.0
132.0; 192.0; 201.0; 215.0
202.0; 268.0; 268.0; 252.0
230.0; 310.0; 283.0; 256.0
202.0; 268.0; 260.0; 242.0
131.0; 210.0; 236.0; 252.0
36.0; 99.0; 137.0; 131.0
0.0; 0.0; 0.0; 0.0
0.0; 0.0; 0.0; 0.0
0.0; 0.0; 0.0; 0.0
0.0; 0.0; 0.0; 0.0
0.0; 0.0; 0.0; 0.0
0.0; 0.0; 0.0; 0.0
2.0; 0.0; 0.0; 0.0
8.0; 0.0; 0.0; 0.0
21.0; 8.0; 1.0; 0.0
51.0; 55.0; 64.0; 79.0
100.0; 128.0; 132.0; 133.0
147.0; 185.0; 190.0; 201.0
215.0; 277.0; 260.0; 259.0
230.0; 309.0; 274.0; 267.0
190.0; 258.0; 246.0; 258.0
128.0; 201.0; 215.0; 237.0
22.0; 72.0; 118.0; 129.0
0.0; 0.0; 0.0; 0.0
0.0; 0.0; 0.0; 0.0
0.0; 0.0; 0.0; 0.0
0.0; 0.0; 0.0; 0.0
0.0; 0.0; 0.0; 0.0
0.0; 0.0; 0.0; 0.0
7.0; 0.0; 0.0; 0.0
10.0; 1.0; 0.0; 0.0
37.0; 33.0; 33.0; 35.0
79.0; 106.0; 129.0; 131.0
135.0; 171.0; 169.0; 165.0
195.0; 251.0; 257.0; 253.0
234.0; 316.0; 283.0; 248.0
213.0; 289.0; 253.0; 253.0
146.0; 217.0; 243.0; 231.0
61.0; 125.0; 130.0; 127.0
0.0; 0.0; 0.0; 0.0
0.0; 0.0; 0.0; 0.0
0.0; 0.0; 0.0; 0.0
0.0; 0.0; 0.0; 0.0
0.0; 0.0; 0.0; 0.0
0.0; 0.0; 0.0; 0.0
0.0; 0.0; 0.0; 0.0
6.0; 0.0; 0.0; 0.0
22.0; 11.0; 3.0; 0.0
50.0; 55.0; 61.0; 81.0
102.0; 130.0; 129.0; 130.0
152.0; 191.0; 208.0; 223.0
219.0; 288.0; 257.0; 255.0
239.0; 324.0; 292.0; 258.0
197.0; 267.0; 254.0; 258.0
131.0; 179.0; 186.0; 183.0
24.0; 61.0; 92.0; 126.0
0.0; 0.0; 0.0; 0.0
0.0; 0.0; 0.0; 0.0
0.0; 0.0; 0.0; 0.0
0.0; 0.0; 0.0; 0.0
0.0; 0.0; 0.0; 0.0
0.0; 0.0; 0.0; 0.0
0.0; 0.0; 0.0; 0.0
10.0; 0.0; 0.0; 0.0
30.0; 24.0; 21.0; 21.0
67.0; 84.0; 110.0; 115.0
129.0; 145.0; 139.0; 130.0
184.0; 244.0; 239.0; 255.0
240.0; 303.0; 275.0; 254.0
225.0; 301.0; 261.0; 246.0
167.0; 246.0; 257.0; 244.0
92.0; 155.0; 151.0; 136.0
0.0; 2.0; 0.0; 0.0
0.0; 0.0; 0.0; 0.0
0.0; 0.0; 0.0; 0.0
0.0; 0.0; 0.0; 0.0
0.0; 0.0; 0.0; 0.0
0.0; 0.0; 0.0; 0.0
0.0; 0.0; 0.0; 0.0
7.0; 0.0; 0.0; 0.0
14.0; 1.0; 0.0; 0.0
36.0; 34.0; 32.0; 35.0
80.0; 107.0; 130.0; 132.0
131.0; 166.0; 161.0; 152.0
194.0; 248.0; 260.0; 246.0
235.0; 315.0; 288.0; 249.0
215.0; 289.0; 258.0; 256.0
153.0; 222.0; 249.0; 243.0
60.0; 125.0; 131.0; 135.0
0.0; 0.0; 0.0; 0.0
0.0; 0.0; 0.0; 0.0
0.0; 0.0; 0.0; 0.0
0.0; 0.0; 0.0; 0.0
0.0; 0.0; 0.0; 0.0
0.0; 0.0; 0.0; 0.0
1.0; 0.0; 0.0; 0.0
10.0; 0.0; 0.0; 0.0
17.0; 7.0; 1.0; 0.0
46.0; 50.0; 57.0; 73.0
98.0; 130.0; 135.0; 131.0
143.0; 177.0; 190.0; 195.0
213.0; 272.0; 257.0; 254.0
237.0; 317.0; 288.0; 253.0
198.0; 260.0; 253.0; 259.0
136.0; 189.0; 204.0; 214.0
39.0; 84.0; 127.0; 134.0
0.0; 0.0; 0.0; 0.0
0.0; 0.0; 0.0; 0.0
0.0; 0.0; 0.0; 0.0
0.0; 0.0; 0.0; 0.0
0.0; 0.0; 0.0; 0.0
0.0; 0.0; 0.0; 0.0
6.0; 0.0; 0.0; 0.0
17.0; 2.0; 0.0; 0.0
33.0; 28.0; 28.0; 31.0
68.0; 87.0; 113.0; 127.0
129.0; 156.0; 145.0; 136.0
187.0; 247.0; 250.0; 263.0
242.0; 302.0; 273.0; 254.0
226.0; 301.0; 259.0; 247.0
170.0; 246.0; 259.0; 241.0
86.0; 146.0; 137.0; 128.0
0.0; 1.0; 0.0; 0.0
0.0; 0.0; 0.0; 0.0
0.0; 0.0; 0.0; 0.0
0.0; 0.0; 0.0; 0.0
0.0; 0.0; 0.0; 0.0
0.0; 0.0; 0.0; 0.0
0.0; 0.0; 0.0; 0.0
3.0; 0.0; 0.0; 0.0
17.0; 4.0; 0.0; 0.0
33.0; 30.0; 25.0; 25.0
81.0; 111.0; 133.0; 121.0
137.0; 178.0; 180.0; 178.0
204.0; 262.0; 252.0; 246.0
240.0; 299.0; 270.0; 258.0
210.0; 278.0; 253.0; 258.0
153.0; 222.0; 246.0; 255.0
57.0; 125.0; 132.0; 125.0
0.0; 0.0; 0.0; 0.0
0.0; 0.0; 0.0; 0.0
0.0; 0.0; 0.0; 0.0
0.0; 0.0; 0.0; 0.0
0.0; 0.0; 0.0; 0.0
0.0; 0.0; 0.0; 0.0
3.0; 0.0; 0.0; 0.0
12.0; 0.0; 0.0; 0.0
16.0; 7.0; 0.0; 0.0
46.0; 48.0; 59.0; 73.0
93.0; 123.0; 137.0; 128.0
143.0; 179.0; 187.0; 192.0
215.0; 277.0; 260.0; 258.0
240.0; 297.0; 266.0; 257.0
201.0; 262.0; 247.0; 255.0
136.0; 195.0; 210.0; 221.0
38.0; 83.0; 127.0; 129.0
0.0; 0.0; 0.0; 0.0
0.0; 0.0; 0.0; 0.0
0.0; 0.0; 0.0; 0.0
0.0; 0.0; 0.0; 0.0
0.0; 0.0; 0.0; 0.0
0.0; 0.0; 0.0; 0.0
4.0; 0.0; 0.0; 0.0
9.0; 0.0; 0.0; 0.0
25.0; 13.0; 6.0; 1.0
59.0; 70.0; 86.0; 118.0
115.0; 127.0; 134.0; 148.0
174.0; 216.0; 239.0; 238.0
239.0; 323.0; 299.0; 264.0
250.0; 315.0; 288.0; 255.0
199.0; 260.0; 250.0; 259.0
125.0; 171.0; 168.0; 161.0
1.0; 19.0; 27.0; 29.0
0.0; 0.0; 0.0; 0.0
0.0; 0.0; 0.0; 0.0
0.0; 0.0; 0.0; 0.0
0.0; 0.0; 0.0; 0.0
0.0; 0.0; 0.0; 0.0
0.0; 0.0; 0.0; 0.0
8.0; 0.0; 0.0; 0.0
22.0; 4.0; 0.0; 0.0
40.0; 39.0; 40.0; 49.0
84.0; 121.0; 128.0; 131.0
130.0; 196.0; 198.0; 211.0
200.0; 279.0; 259.0; 260.0
246.0; 334.0; 315.0; 275.0
218.0; 310.0; 270.0; 251.0
170.0; 282.0; 245.0; 235.0
32.0; 92.0; 128.0; 131.0
0.0; 0.0; 0.0; 0.0
0.0; 0.0; 0.0; 0.0
0.0; 0.0; 0.0; 0.0
0.0; 0.0; 0.0; 0.0
1.0; 0.0; 0.0; 0.0
8.0; 0.0; 0.0; 0.0
22.0; 11.0; 1.0; 0.0
35.0; 36.0; 35.0; 34.0
57.0; 81.0; 106.0; 118.0
117.0; 179.0; 165.0; 146.0
170.0; 255.0; 256.0; 223.0
205.0; 297.0; 265.0; 253.0
191.0; 263.0; 262.0; 247.0
144.0; 210.0; 242.0; 255.0
89.0; 141.0; 139.0; 131.0
0.0; 0.0; 0.0; 1.0
0.0; 0.0; 0.0; 0.0
0.0; 0.0; 0.0; 0.0
0.0; 0.0; 0.0; 0.0
0.0; 0.0; 0.0; 0.0
0.0; 0.0; 0.0; 0.0
7.0; 0.0; 0.0; 0.0
5.0; 0.0; 0.0; 0.0
22.0; 12.0; 4.0; 0.0
39.0; 39.0; 39.0; 41.0
63.0; 90.0; 122.0; 130.0
128.0; 211.0; 216.0; 231.0
168.0; 260.0; 261.0; 256.0
204.0; 297.0; 266.0; 253.0
185.0; 261.0; 262.0; 251.0
129.0; 199.0; 232.0; 251.0
77.0; 134.0; 139.0; 132.0
0.0; 0.0; 0.0; 1.0
0.0; 0.0; 0.0; 0.0
0.0; 0.0; 0.0; 0.0
0.0; 0.0; 0.0; 0.0
0.0; 0.0; 0.0; 0.0
1.0; 0.0; 0.0; 0.0
5.0; 0.0; 0.0; 0.0
17.0; 4.0; 0.0; 0.0
30.0; 29.0; 22.0; 22.0
48.0; 64.0; 77.0; 104.0
90.0; 126.0; 134.0; 134.0
151.0; 227.0; 243.0; 220.0
193.0; 285.0; 255.0; 250.0
196.0; 273.0; 259.0; 253.0
151.0; 229.0; 258.0; 258.0
117.0; 193.0; 209.0; 233.0
22.0; 28.0; 81.0; 131.0
0.0; 0.0; 0.0; 0.0
0.0; 0.0; 0.0; 0.0
0.0; 0.0; 0.0; 0.0
0.0; 0.0; 0.0; 0.0
0.0; 0.0; 0.0; 0.0
2.0; 0.0; 0.0; 0.0
16.0; 1.0; 0.0; 0.0
20.0; 10.0; 1.0; 0.0
37.0; 33.0; 31.0; 27.0
67.0; 93.0; 118.0; 129.0
136.0; 208.0; 205.0; 209.0
177.0; 260.0; 249.0; 248.0
205.0; 297.0; 263.0; 255.0
173.0; 252.0; 256.0; 252.0
131.0; 194.0; 217.0; 247.0
68.0; 122.0; 142.0; 134.0
0.0; 0.0; 0.0; 0.0
0.0; 0.0; 0.0; 0.0
0.0; 0.0; 0.0; 0.0
0.0; 0.0; 0.0; 0.0
0.0; 0.0; 0.0; 0.0
1.0; 0.0; 0.0; 0.0
8.0; 0.0; 0.0; 0.0
22.0; 11.0; 2.0; 0.0
35.0; 38.0; 35.0; 35.0
58.0; 81.0; 109.0; 121.0
123.0; 182.0; 173.0; 163.0
168.0; 254.0; 242.0; 234.0
207.0; 308.0; 273.0; 246.0
191.0; 270.0; 253.0; 252.0
143.0; 212.0; 243.0; 249.0
96.0; 155.0; 159.0; 153.0
0.0; 0.0; 1.0; 4.0
0.0; 0.0; 0.0; 0.0
0.0; 0.0; 0.0; 0.0
0.0; 0.0; 0.0; 0.0
0.0; 0.0; 0.0; 0.0
0.0; 0.0; 0.0; 0.0
3.0; 0.0; 0.0; 0.0
10.0; 0.0; 0.0; 0.0
17.0; 10.0; 1.0; 0.0
35.0; 36.0; 34.0; 35.0
63.0; 86.0; 114.0; 127.0
135.0; 216.0; 227.0; 247.0
190.0; 283.0; 259.0; 260.0
202.0; 278.0; 258.0; 260.0
178.0; 258.0; 252.0; 247.0
136.0; 212.0; 248.0; 246.0
88.0; 152.0; 157.0; 146.0
0.0; 0.0; 0.0; 0.0
0.0; 0.0; 0.0; 0.0
0.0; 0.0; 0.0; 0.0
0.0; 0.0; 0.0; 0.0
0.0; 0.0; 0.0; 0.0
0.0; 0.0; 0.0; 0.0
0.0; 0.0; 0.0; 0.0
1.0; 0.0; 0.0; 0.0
14.0; 0.0; 0.0; 0.0
20.0; 8.0; 0.0; 0.0
43.0; 52.0; 51.0; 59.0
103.0; 133.0; 126.0; 139.0
157.0; 209.0; 215.0; 239.0
243.0; 306.0; 274.0; 256.0
256.0; 323.0; 292.0; 252.0
215.0; 290.0; 251.0; 253.0
136.0; 202.0; 218.0; 240.0
21.0; 70.0; 117.0; 134.0
0.0; 0.0; 0.0; 0.0
0.0; 0.0; 0.0; 0.0
0.0; 0.0; 0.0; 0.0
0.0; 0.0; 0.0; 0.0
0.0; 0.0; 0.0; 0.0
0.0; 0.0; 0.0; 0.0
6.0; 0.0; 0.0; 0.0
16.0; 4.0; 0.0; 0.0
35.0; 31.0; 29.0; 29.0
76.0; 104.0; 130.0; 126.0
133.0; 176.0; 183.0; 185.0
204.0; 263.0; 251.0; 246.0
247.0; 331.0; 310.0; 265.0
229.0; 320.0; 288.0; 253.0
165.0; 251.0; 253.0; 246.0
85.0; 150.0; 146.0; 137.0
0.0; 0.0; 0.0; 0.0
0.0; 0.0; 0.0; 0.0
0.0; 0.0; 0.0; 0.0
0.0; 0.0; 0.0; 0.0
0.0; 0.0; 0.0; 0.0
0.0; 0.0; 0.0; 0.0
0.0; 0.0; 0.0; 0.0
9.0; 0.0; 0.0; 0.0
21.0; 9.0; 2.0; 0.0
39.0; 37.0; 35.0; 37.0
80.0; 114.0; 119.0; 130.0
134.0; 198.0; 202.0; 216.0
199.0; 268.0; 261.0; 254.0
241.0; 302.0; 274.0; 254.0
217.0; 287.0; 256.0; 252.0
154.0; 226.0; 247.0; 254.0
54.0; 122.0; 142.0; 130.0
0.0; 0.0; 0.0; 0.0
0.0; 0.0; 0.0; 0.0
0.0; 0.0; 0.0; 0.0
0.0; 0.0; 0.0; 0.0
0.0; 0.0; 0.0; 0.0
0.0; 0.0; 0.0; 0.0
0.0; 0.0; 0.0; 0.0
13.0; 1.0; 0.0; 0.0
24.0; 16.0; 11.0; 4.0
55.0; 62.0; 78.0; 99.0
117.0; 134.0; 138.0; 135.0
169.0; 214.0; 233.0; 255.0
242.0; 298.0; 273.0; 254.0
249.0; 306.0; 270.0; 254.0
196.0; 255.0; 253.0; 251.0
121.0; 184.0; 188.0; 182.0
4.0; 38.0; 61.0; 82.0
0.0; 0.0; 0.0; 0.0
0.0; 0.0; 0.0; 0.0
0.0; 0.0; 0.0; 0.0
0.0; 0.0; 0.0; 0.0
0.0; 0.0; 0.0; 0.0
0.0; 0.0; 0.0; 0.0
4.0; 0.0; 0.0; 0.0
10.0; 1.0; 0.0; 0.0
34.0; 29.0; 24.0; 27.0
74.0; 101.0; 132.0; 131.0
133.0; 160.0; 159.0; 153.0
192.0; 254.0; 244.0; 252.0
243.0; 306.0; 272.0; 260.0
225.0; 300.0; 256.0; 241.0
165.0; 245.0; 244.0; 238.0
77.0; 137.0; 129.0; 134.0
0.0; 0.0; 0.0; 0.0
0.0; 0.0; 0.0; 0.0
0.0; 0.0; 0.0; 0.0
0.0; 0.0; 0.0; 0.0
0.0; 0.0; 0.0; 0.0
0.0; 0.0; 0.0; 0.0
1.0; 0.0; 0.0; 0.0
5.0; 0.0; 0.0; 0.0
21.0; 11.0; 2.0; 0.0
46.0; 50.0; 59.0; 71.0
92.0; 124.0; 126.0; 130.0
139.0; 182.0; 188.0; 194.0
206.0; 264.0; 256.0; 261.0
236.0; 312.0; 278.0; 258.0
209.0; 278.0; 253.0; 245.0
130.0; 212.0; 233.0; 248.0
35.0; 105.0; 136.0; 129.0
0.0; 0.0; 0.0; 0.0
0.0; 0.0; 0.0; 0.0
0.0; 0.0; 0.0; 0.0
0.0; 0.0; 0.0; 0.0
0.0; 0.0; 0.0; 0.0
0.0; 0.0; 0.0; 0.0
3.0; 0.0; 0.0; 0.0
16.0; 2.0; 0.0; 0.0
33.0; 29.0; 23.0; 22.0
68.0; 87.0; 116.0; 124.0
125.0; 160.0; 158.0; 142.0
177.0; 244.0; 249.0; 254.0
230.0; 316.0; 286.0; 259.0
226.0; 310.0; 267.0; 253.0
168.0; 250.0; 255.0; 248.0
88.0; 151.0; 133.0; 133.0
0.0; 1.0; 0.0; 0.0
0.0; 0.0; 0.0; 0.0
0.0; 0.0; 0.0; 0.0
0.0; 0.0; 0.0; 0.0
0.0; 0.0; 0.0; 0.0
0.0; 0.0; 0.0; 0.0
0.0; 0.0; 0.0; 0.0
5.0; 0.0; 0.0; 0.0
18.0; 4.0; 0.0; 0.0
39.0; 37.0; 41.0; 46.0
78.0; 106.0; 128.0; 125.0
132.0; 173.0; 175.0; 173.0
201.0; 257.0; 257.0; 241.0
245.0; 302.0; 271.0; 260.0
214.0; 283.0; 258.0; 252.0
159.0; 230.0; 253.0; 234.0
67.0; 130.0; 131.0; 132.0
0.0; 0.0; 0.0; 0.0
0.0; 0.0; 0.0; 0.0
0.0; 0.0; 0.0; 0.0
0.0; 0.0; 0.0; 0.0
0.0; 0.0; 0.0; 0.0
0.0; 0.0; 0.0; 0.0
1.0; 0.0; 0.0; 0.0
11.0; 0.0; 0.0; 0.0
15.0; 7.0; 0.0; 0.0
47.0; 51.0; 56.0; 73.0
95.0; 124.0; 132.0; 128.0
136.0; 167.0; 169.0; 169.0
214.0; 271.0; 249.0; 246.0
239.0; 293.0; 266.0; 262.0
197.0; 258.0; 249.0; 255.0
136.0; 197.0; 211.0; 225.0
36.0; 87.0; 130.0; 129.0
0.0; 0.0; 0.0; 0.0
0.0; 0.0; 0.0; 0.0
0.0; 0.0; 0.0; 0.0
0.0; 0.0; 0.0; 0.0
0.0; 0.0; 0.0; 0.0
0.0; 0.0; 0.0; 0.0
4.0; 0.0; 0.0; 0.0
9.0; 0.0; 0.0; 0.0
24.0; 12.0; 3.0; 1.0
58.0; 68.0; 83.0; 114.0
120.0; 134.0; 142.0; 131.0
174.0; 216.0; 240.0; 236.0
244.0; 296.0; 271.0; 269.0
244.0; 297.0; 259.0; 253.0
192.0; 253.0; 249.0; 254.0
128.0; 179.0; 186.0; 185.0
3.0; 25.0; 42.0; 55.0
0.0; 0.0; 0.0; 0.0
0.0; 0.0; 0.0; 0.0
0.0; 0.0; 0.0; 0.0
0.0; 0.0; 0.0; 0.0
0.0; 0.0; 0.0; 0.0
0.0; 0.0; 0.0; 0.0
7.0; 0.0; 0.0; 0.0
20.0; 5.0; 0.0; 0.0
40.0; 41.0; 39.0; 49.0
80.0; 111.0; 137.0; 126.0
132.0; 195.0; 205.0; 219.0
203.0; 271.0; 262.0; 256.0
239.0; 326.0; 303.0; 266.0
218.0; 296.0; 259.0; 250.0
158.0; 240.0; 256.0; 250.0
56.0; 125.0; 131.0; 131.0
0.0; 0.0; 0.0; 0.0
0.0; 0.0; 0.0; 0.0
0.0; 0.0; 0.0; 0.0
0.0; 0.0; 0.0; 0.0
0.0; 0.0; 0.0; 0.0
0.0; 0.0; 0.0; 0.0
1.0; 0.0; 0.0; 0.0
15.0; 0.0; 0.0; 0.0
25.0; 17.0; 12.0; 6.0
51.0; 61.0; 72.0; 98.0
113.0; 132.0; 126.0; 135.0
169.0; 217.0; 237.0; 226.0
247.0; 304.0; 279.0; 254.0
249.0; 327.0; 293.0; 260.0
189.0; 263.0; 253.0; 259.0
132.0; 192.0; 204.0; 219.0
16.0; 48.0; 82.0; 121.0
0.0; 0.0; 0.0; 0.0
0.0; 0.0; 0.0; 0.0
0.0; 0.0; 0.0; 0.0
0.0; 0.0; 0.0; 0.0
0.0; 0.0; 0.0; 0.0
0.0; 0.0; 0.0; 0.0
2.0; 0.0; 0.0; 0.0
17.0; 4.0; 0.0; 0.0
40.0; 39.0; 38.0; 39.0
83.0; 119.0; 129.0; 127.0
138.0; 182.0; 189.0; 197.0
206.0; 271.0; 253.0; 247.0
246.0; 305.0; 276.0; 250.0
224.0; 294.0; 255.0; 255.0
164.0; 241.0; 263.0; 247.0
60.0; 125.0; 142.0; 129.0
0.0; 0.0; 0.0; 0.0
0.0; 0.0; 0.0; 0.0
0.0; 0.0; 0.0; 0.0
0.0; 0.0; 0.0; 0.0
0.0; 0.0; 0.0; 0.0
0.0; 0.0; 0.0; 0.0
0.0; 0.0; 0.0; 0.0
6.0; 0.0; 0.0; 0.0
21.0; 11.0; 1.0; 0.0
50.0; 57.0; 66.0; 83.0
103.0; 126.0; 128.0; 130.0
161.0; 202.0; 217.0; 240.0
242.0; 296.0; 264.0; 262.0
253.0; 311.0; 277.0; 258.0
207.0; 271.0; 248.0; 254.0
133.0; 186.0; 199.0; 201.0
16.0; 44.0; 73.0; 109.0
0.0; 0.0; 0.0; 0.0
0.0; 0.0; 0.0; 0.0
0.0; 0.0; 0.0; 0.0
0.0; 0.0; 0.0; 0.0
0.0; 0.0; 0.0; 0.0
0.0; 0.0; 0.0; 0.0
2.0; 0.0; 0.0; 0.0
10.0; 0.0; 0.0; 0.0
33.0; 28.0; 28.0; 27.0
67.0; 91.0; 115.0; 131.0
132.0; 155.0; 148.0; 135.0
201.0; 254.0; 255.0; 246.0
251.0; 328.0; 309.0; 265.0
231.0; 316.0; 287.0; 254.0
170.0; 254.0; 246.0; 246.0
86.0; 148.0; 137.0; 135.0
0.0; 0.0; 0.0; 0.0
0.0; 0.0; 0.0; 0.0
0.0; 0.0; 0.0; 0.0
0.0; 0.0; 0.0; 0.0
0.0; 0.0; 0.0; 0.0
0.0; 0.0; 0.0; 0.0
0.0; 0.0; 0.0; 0.0
5.0; 0.0; 0.0; 0.0
17.0; 3.0; 0.0; 0.0
39.0; 38.0; 41.0; 49.0
90.0; 121.0; 129.0; 131.0
142.0; 183.0; 185.0; 197.0
215.0; 282.0; 256.0; 252.0
249.0; 330.0; 297.0; 257.0
225.0; 311.0; 272.0; 255.0
159.0; 243.0; 260.0; 239.0
54.0; 125.0; 130.0; 128.0
0.0; 0.0; 0.0; 0.0
0.0; 0.0; 0.0; 0.0
0.0; 0.0; 0.0; 0.0
0.0; 0.0; 0.0; 0.0
0.0; 0.0; 0.0; 0.0
0.0; 0.0; 0.0; 0.0
0.0; 0.0; 0.0; 0.0
6.0; 0.0; 0.0; 0.0
21.0; 10.0; 1.0; 0.0
50.0; 58.0; 67.0; 87.0
110.0; 134.0; 134.0; 136.0
168.0; 216.0; 236.0; 248.0
244.0; 307.0; 277.0; 255.0
256.0; 321.0; 290.0; 252.0
207.0; 275.0; 251.0; 240.0
129.0; 186.0; 191.0; 196.0
17.0; 48.0; 77.0; 117.0
0.0; 0.0; 0.0; 0.0
0.0; 0.0; 0.0; 0.0
0.0; 0.0; 0.0; 0.0
0.0; 0.0; 0.0; 0.0
0.0; 0.0; 0.0; 0.0
0.0; 0.0; 0.0; 0.0
1.0; 0.0; 0.0; 0.0
10.0; 1.0; 0.0; 0.0
29.0; 20.0; 14.0; 5.0
72.0; 91.0; 120.0; 126.0
133.0; 159.0; 160.0; 150.0
199.0; 254.0; 256.0; 246.0
251.0; 314.0; 296.0; 254.0
246.0; 305.0; 267.0; 253.0
186.0; 253.0; 250.0; 249.0
100.0; 165.0; 159.0; 139.0
0.0; 0.0; 0.0; 0.0
0.0; 0.0; 0.0; 0.0
0.0; 0.0; 0.0; 0.0
0.0; 0.0; 0.0; 0.0
0.0; 0.0; 0.0; 0.0
0.0; 0.0; 0.0; 0.0
0.0; 0.0; 0.0; 0.0
7.0; 0.0; 0.0; 0.0
17.0; 3.0; 0.0; 0.0
40.0; 41.0; 40.0; 47.0
89.0; 123.0; 131.0; 131.0
139.0; 184.0; 187.0; 192.0
217.0; 292.0; 256.0; 262.0
253.0; 322.0; 292.0; 258.0
229.0; 315.0; 273.0; 249.0
164.0; 247.0; 242.0; 234.0
33.0; 107.0; 135.0; 133.0
0.0; 0.0; 0.0; 0.0
0.0; 0.0; 0.0; 0.0
0.0; 0.0; 0.0; 0.0
0.0; 0.0; 0.0; 0.0
2.0; 0.0; 0.0; 0.0
4.0; 0.0; 0.0; 0.0
22.0; 12.0; 4.0; 0.0
34.0; 23.0; 18.0; 16.0
63.0; 85.0; 104.0; 131.0
131.0; 215.0; 210.0; 219.0
166.0; 258.0; 256.0; 249.0
190.0; 276.0; 253.0; 261.0
172.0; 257.0; 251.0; 247.0
131.0; 195.0; 229.0; 247.0
82.0; 154.0; 156.0; 141.0
0.0; 0.0; 2.0; 1.0
0.0; 0.0; 0.0; 0.0
0.0; 0.0; 0.0; 0.0
0.0; 0.0; 0.0; 0.0
0.0; 0.0; 0.0; 0.0
1.0; 0.0; 0.0; 0.0
8.0; 0.0; 0.0; 0.0
10.0; 1.0; 0.0; 0.0
29.0; 23.0; 16.0; 11.0
46.0; 58.0; 70.0; 91.0
89.0; 137.0; 130.0; 133.0
143.0; 247.0; 225.0; 245.0
163.0; 261.0; 250.0; 254.0
172.0; 259.0; 260.0; 257.0
142.0; 227.0; 249.0; 259.0
111.0; 173.0; 188.0; 203.0
53.0; 63.0; 116.0; 132.0
0.0; 0.0; 0.0; 0.0
0.0; 0.0; 0.0; 0.0
0.0; 0.0; 0.0; 0.0
0.0; 0.0; 0.0; 0.0
0.0; 0.0; 0.0; 0.0
5.0; 0.0; 0.0; 0.0
17.0; 1.0; 0.0; 0.0
25.0; 25.0; 11.0; 1.0
38.0; 43.0; 45.0; 49.0
76.0; 125.0; 119.0; 133.0
134.0; 227.0; 231.0; 241.0
159.0; 256.0; 261.0; 241.0
181.0; 265.0; 266.0; 254.0
160.0; 246.0; 258.0; 248.0
121.0; 193.0; 215.0; 243.0
78.0; 117.0; 153.0; 133.0
0.0; 0.0; 0.0; 0.0
0.0; 0.0; 0.0; 0.0
0.0; 0.0; 0.0; 0.0
0.0; 0.0; 0.0; 0.0
0.0; 0.0; 0.0; 0.0
1.0; 0.0; 0.0; 0.0
10.0; 0.0; 0.0; 0.0
24.0; 18.0; 7.0; 2.0
37.0; 46.0; 47.0; 57.0
75.0; 122.0; 136.0; 123.0
130.0; 213.0; 215.0; 223.0
155.0; 254.0; 246.0; 255.0
177.0; 266.0; 259.0; 253.0
166.0; 251.0; 253.0; 246.0
127.0; 194.0; 226.0; 250.0
83.0; 125.0; 135.0; 149.0
0.0; 0.0; 0.0; 2.0
0.0; 0.0; 0.0; 0.0
0.0; 0.0; 0.0; 0.0
0.0; 0.0; 0.0; 0.0
0.0; 0.0; 0.0; 0.0
1.0; 0.0; 0.0; 0.0
7.0; 0.0; 0.0; 0.0
17.0; 8.0; 0.0; 0.0
32.0; 29.0; 26.0; 27.0
50.0; 71.0; 83.0; 113.0
97.0; 160.0; 128.0; 133.0
142.0; 234.0; 242.0; 228.0
165.0; 258.0; 267.0; 249.0
169.0; 256.0; 266.0; 251.0
129.0; 227.0; 259.0; 250.0
95.0; 173.0; 194.0; 205.0
43.0; 58.0; 118.0; 132.0
0.0; 0.0; 0.0; 0.0
0.0; 0.0; 0.0; 0.0
0.0; 0.0; 0.0; 0.0
0.0; 0.0; 0.0; 0.0
0.0; 0.0; 0.0; 0.0
6.0; 0.0; 0.0; 0.0
15.0; 1.0; 0.0; 0.0
27.0; 24.0; 16.0; 3.0
40.0; 56.0; 62.0; 69.0
85.0; 130.0; 129.0; 128.0
131.0; 215.0; 221.0; 239.0
148.0; 252.0; 257.0; 252.0
176.0; 263.0; 251.0; 256.0
144.0; 239.0; 255.0; 263.0
121.0; 191.0; 216.0; 249.0
74.0; 114.0; 157.0; 149.0
0.0; 0.0; 0.0; 0.0
0.0; 0.0; 0.0; 0.0
0.0; 0.0; 0.0; 0.0
0.0; 0.0; 0.0; 0.0
1.0; 0.0; 0.0; 0.0
3.0; 0.0; 0.0; 0.0
12.0; 0.0; 0.0; 0.0
24.0; 22.0; 16.0; 10.0
38.0; 50.0; 57.0; 64.0
78.0; 130.0; 131.0; 132.0
128.0; 229.0; 237.0; 248.0
148.0; 252.0; 249.0; 259.0
167.0; 260.0; 265.0; 263.0
146.0; 239.0; 258.0; 250.0
114.0; 192.0; 216.0; 238.0
67.0; 115.0; 137.0; 137.0
0.0; 0.0; 0.0; 0.0
0.0; 0.0; 0.0; 0.0
0.0; 0.0; 0.0; 0.0
0.0; 0.0; 0.0; 0.0
0.0; 0.0; 0.0; 0.0
5.0; 0.0; 0.0; 0.0
9.0; 0.0; 0.0; 0.0
22.0; 21.0; 8.0; 2.0
38.0; 45.0; 46.0; 53.0
71.0; 119.0; 119.0; 127.0
127.0; 203.0; 194.0; 189.0
150.0; 254.0; 259.0; 246.0
178.0; 267.0; 267.0; 257.0
166.0; 253.0; 251.0; 248.0
127.0; 211.0; 249.0; 249.0
77.0; 129.0; 141.0; 132.0
1.0; 0.0; 5.0; 7.0
0.0; 0.0; 0.0; 0.0
0.0; 0.0; 0.0; 0.0
0.0; 0.0; 0.0; 0.0
0.0; 0.0; 0.0; 0.0
0.0; 0.0; 0.0; 0.0
8.0; 0.0; 0.0; 0.0
19.0; 9.0; 0.0; 0.0
29.0; 33.0; 31.0; 29.0
51.0; 77.0; 98.0; 129.0
100.0; 156.0; 134.0; 141.0
136.0; 228.0; 233.0; 242.0
159.0; 254.0; 261.0; 258.0
171.0; 252.0; 267.0; 261.0
129.0; 220.0; 254.0; 242.0
100.0; 181.0; 202.0; 213.0
35.0; 39.0; 93.0; 126.0
0.0; 0.0; 0.0; 0.0
0.0; 0.0; 0.0; 0.0
0.0; 0.0; 0.0; 0.0
0.0; 0.0; 0.0; 0.0
3.0; 0.0; 0.0; 0.0
11.0; 0.0; 0.0; 0.0
18.0; 4.0; 0.0; 0.0
31.0; 34.0; 24.0; 21.0
51.0; 80.0; 93.0; 121.0
96.0; 162.0; 137.0; 126.0
132.0; 244.0; 213.0; 221.0
157.0; 257.0; 253.0; 253.0
167.0; 254.0; 259.0; 252.0
135.0; 237.0; 258.0; 248.0
104.0; 193.0; 211.0; 228.0
52.0; 75.0; 131.0; 136.0
0.0; 0.0; 0.0; 0.0
0.0; 0.0; 0.0; 0.0
0.0; 0.0; 0.0; 0.0
0.0; 0.0; 0.0; 0.0
0.0; 0.0; 0.0; 0.0
7.0; 0.0; 0.0; 0.0
15.0; 2.0; 0.0; 0.0
27.0; 23.0; 13.0; 1.0
46.0; 61.0; 74.0; 88.0
85.0; 134.0; 130.0; 128.0
140.0; 218.0; 230.0; 247.0
158.0; 255.0; 256.0; 258.0
176.0; 257.0; 256.0; 255.0
151.0; 239.0; 258.0; 256.0
119.0; 202.0; 234.0; 249.0
67.0; 117.0; 134.0; 149.0
0.0; 0.0; 0.0; 1.0
0.0; 0.0; 0.0; 0.0
0.0; 0.0; 0.0; 0.0
0.0; 0.0; 0.0; 0.0
1.0; 0.0; 0.0; 0.0
5.0; 0.0; 0.0; 0.0
15.0; 0.0; 0.0; 0.0
31.0; 21.0; 12.0; 4.0
48.0; 62.0; 66.0; 83.0
82.0; 126.0; 134.0; 131.0
135.0; 210.0; 213.0; 221.0
153.0; 257.0; 251.0; 252.0
177.0; 266.0; 266.0; 257.0
159.0; 248.0; 254.0; 262.0
118.0; 189.0; 216.0; 240.0
74.0; 120.0; 158.0; 154.0
0.0; 0.0; 2.0; 4.0
0.0; 0.0; 0.0; 0.0
0.0; 0.0; 0.0; 0.0
0.0; 0.0; 0.0; 0.0
0.0; 0.0; 0.0; 0.0
2.0; 0.0; 0.0; 0.0
11.0; 0.0; 0.0; 0.0
28.0; 20.0; 11.0; 1.0
43.0; 53.0; 63.0; 76.0
73.0; 122.0; 136.0; 127.0
130.0; 210.0; 209.0; 217.0
153.0; 251.0; 252.0; 257.0
181.0; 266.0; 267.0; 256.0
163.0; 251.0; 257.0; 251.0
125.0; 190.0; 213.0; 243.0
80.0; 128.0; 132.0; 149.0
0.0; 0.0; 0.0; 3.0
0.0; 0.0; 0.0; 0.0
0.0; 0.0; 0.0; 0.0
0.0; 0.0; 0.0; 0.0
0.0; 0.0; 0.0; 0.0
4.0; 0.0; 0.0; 0.0
13.0; 1.0; 0.0; 0.0
17.0; 11.0; 0.0; 0.0
26.0; 30.0; 20.0; 14.0
55.0; 96.0; 114.0; 113.0
112.0; 179.0; 164.0; 139.0
157.0; 255.0; 234.0; 250.0
181.0; 268.0; 266.0; 253.0
172.0; 252.0; 260.0; 247.0
129.0; 187.0; 218.0; 246.0
99.0; 148.0; 154.0; 147.0
2.0; 0.0; 5.0; 7.0
0.0; 0.0; 0.0; 0.0
0.0; 0.0; 0.0; 0.0
0.0; 0.0; 0.0; 0.0
0.0; 0.0; 0.0; 0.0
1.0; 0.0; 0.0; 0.0
9.0; 0.0; 0.0; 0.0
10.0; 0.0; 0.0; 0.0
29.0; 27.0; 16.0; 11.0
46.0; 55.0; 64.0; 84.0
84.0; 131.0; 131.0; 131.0
141.0; 254.0; 250.0; 249.0
160.0; 259.0; 257.0; 252.0
183.0; 273.0; 258.0; 255.0
158.0; 246.0; 249.0; 249.0
122.0; 207.0; 238.0; 231.0
72.0; 129.0; 141.0; 137.0
0.0; 0.0; 0.0; 0.0
0.0; 0.0; 0.0; 0.0
0.0; 0.0; 0.0; 0.0
0.0; 0.0; 0.0; 0.0
1.0; 0.0; 0.0; 0.0
2.0; 0.0; 0.0; 0.0
11.0; 0.0; 0.0; 0.0
25.0; 21.0; 16.0; 8.0
38.0; 43.0; 46.0; 52.0
59.0; 92.0; 119.0; 135.0
130.0; 228.0; 232.0; 248.0
173.0; 264.0; 256.0; 260.0
191.0; 263.0; 261.0; 255.0
162.0; 247.0; 254.0; 253.0
133.0; 202.0; 232.0; 252.0
82.0; 130.0; 161.0; 149.0
0.0; 0.0; 0.0; 0.0
0.0; 0.0; 0.0; 0.0
0.0; 0.0; 0.0; 0.0
0.0; 0.0; 0.0; 0.0
0.0; 0.0; 0.0; 0.0
0.0; 0.0; 0.0; 0.0
2.0; 0.0; 0.0; 0.0
4.0; 0.0; 0.0; 0.0
22.0; 13.0; 1.0; 0.0
39.0; 41.0; 41.0; 44.0
75.0; 106.0; 128.0; 127.0
125.0; 175.0; 168.0; 153.0
179.0; 258.0; 250.0; 241.0
251.0; 348.0; 334.0; 295.0
256.0; 324.0; 310.0; 262.0
190.0; 262.0; 250.0; 230.0
114.0; 163.0; 160.0; 142.0
0.0; 0.0; 0.0; 0.0
0.0; 0.0; 0.0; 0.0
0.0; 0.0; 0.0; 0.0
0.0; 0.0; 0.0; 0.0
0.0; 0.0; 0.0; 0.0
0.0; 0.0; 0.0; 0.0
0.0; 0.0; 0.0; 0.0
0.0; 0.0; 0.0; 0.0
13.0; 0.0; 0.0; 0.0
20.0; 9.0; 1.0; 0.0
55.0; 62.0; 73.0; 96.0
120.0; 133.0; 135.0; 129.0
179.0; 229.0; 243.0; 243.0
256.0; 321.0; 299.0; 265.0
256.0; 324.0; 302.0; 261.0
202.0; 272.0; 248.0; 255.0
131.0; 182.0; 194.0; 191.0
1.0; 11.0; 28.0; 40.0
0.0; 0.0; 0.0; 0.0
0.0; 0.0; 0.0; 0.0
0.0; 0.0; 0.0; 0.0
0.0; 0.0; 0.0; 0.0
0.0; 0.0; 0.0; 0.0
0.0; 0.0; 0.0; 0.0
4.0; 0.0; 0.0; 0.0
13.0; 1.0; 0.0; 0.0
29.0; 26.0; 22.0; 24.0
69.0; 91.0; 116.0; 126.0
132.0; 160.0; 151.0; 134.0
197.0; 253.0; 254.0; 240.0
252.0; 316.0; 294.0; 257.0
238.0; 330.0; 292.0; 257.0
181.0; 254.0; 249.0; 249.0
85.0; 140.0; 129.0; 134.0
0.0; 0.0; 0.0; 0.0
0.0; 0.0; 0.0; 0.0
0.0; 0.0; 0.0; 0.0
0.0; 0.0; 0.0; 0.0
0.0; 0.0; 0.0; 0.0
0.0; 0.0; 0.0; 0.0
0.0; 0.0; 0.0; 0.0
5.0; 0.0; 0.0; 0.0
10.0; 0.0; 0.0; 0.0
37.0; 34.0; 32.0; 41.0
84.0; 118.0; 125.0; 124.0
140.0; 185.0; 188.0; 195.0
213.0; 278.0; 259.0; 253.0
255.0; 314.0; 288.0; 255.0
225.0; 305.0; 266.0; 247.0
160.0; 245.0; 248.0; 242.0
53.0; 123.0; 135.0; 134.0
0.0; 0.0; 0.0; 0.0
0.0; 0.0; 0.0; 0.0
0.0; 0.0; 0.0; 0.0
0.0; 0.0; 0.0; 0.0
0.0; 0.0; 0.0; 0.0
0.0; 0.0; 0.0; 0.0
0.0; 0.0; 0.0; 0.0
6.0; 0.0; 0.0; 0.0
22.0; 10.0; 2.0; 0.0
50.0; 58.0; 66.0; 87.0
107.0; 132.0; 134.0; 135.0
160.0; 202.0; 215.0; 234.0
244.0; 300.0; 267.0; 267.0
253.0; 333.0; 301.0; 257.0
204.0; 279.0; 257.0; 249.0
135.0; 197.0; 217.0; 238.0
22.0; 62.0; 109.0; 128.0
0.0; 0.0; 0.0; 0.0
0.0; 0.0; 0.0; 0.0
0.0; 0.0; 0.0; 0.0
0.0; 0.0; 0.0; 0.0
0.0; 0.0; 0.0; 0.0
0.0; 0.0; 0.0; 0.0
4.0; 0.0; 0.0; 0.0
10.0; 0.0; 0.0; 0.0
36.0; 30.0; 31.0; 34.0
73.0; 101.0; 123.0; 124.0
130.0; 169.0; 171.0; 166.0
209.0; 259.0; 259.0; 258.0
255.0; 305.0; 275.0; 262.0
229.0; 306.0; 266.0; 253.0
168.0; 248.0; 262.0; 249.0
67.0; 132.0; 131.0; 136.0
0.0; 0.0; 0.0; 0.0
0.0; 0.0; 0.0; 0.0
0.0; 0.0; 0.0; 0.0
0.0; 0.0; 0.0; 0.0
0.0; 0.0; 0.0; 0.0
0.0; 0.0; 0.0; 0.0
0.0; 0.0; 0.0; 0.0
6.0; 0.0; 0.0; 0.0
14.0; 1.0; 0.0; 0.0
41.0; 39.0; 41.0; 50.0
87.0; 122.0; 137.0; 123.0
146.0; 193.0; 203.0; 217.0
230.0; 302.0; 264.0; 262.0
253.0; 322.0; 288.0; 253.0
225.0; 303.0; 258.0; 248.0
150.0; 225.0; 243.0; 250.0
38.0; 100.0; 130.0; 126.0
0.0; 0.0; 0.0; 0.0
0.0; 0.0; 0.0; 0.0
0.0; 0.0; 0.0; 0.0
0.0; 0.0; 0.0; 0.0
0.0; 0.0; 0.0; 0.0
0.0; 0.0; 0.0; 0.0
1.0; 0.0; 0.0; 0.0
12.0; 0.0; 0.0; 0.0
26.0; 13.0; 4.0; 0.0
55.0; 66.0; 78.0; 99.0
119.0; 151.0; 133.0; 139.0
177.0; 242.0; 230.0; 246.0
255.0; 330.0; 306.0; 268.0
256.0; 324.0; 301.0; 261.0
197.0; 260.0; 250.0; 256.0
129.0; 174.0; 177.0; 172.0
0.0; 2.0; 7.0; 7.0
0.0; 0.0; 0.0; 0.0
0.0; 0.0; 0.0; 0.0
0.0; 0.0; 0.0; 0.0
0.0; 0.0; 0.0; 0.0
0.0; 0.0; 0.0; 0.0
0.0; 0.0; 0.0; 0.0
0.0; 0.0; 0.0; 0.0
13.0; 0.0; 0.0; 0.0
23.0; 18.0; 13.0; 7.0
61.0; 79.0; 100.0; 126.0
128.0; 172.0; 164.0; 157.0
195.0; 258.0; 256.0; 246.0
257.0; 326.0; 309.0; 270.0
251.0; 317.0; 291.0; 255.0
188.0; 260.0; 256.0; 257.0
118.0; 168.0; 165.0; 155.0
0.0; 0.0; 0.0; 0.0
0.0; 0.0; 0.0; 0.0
0.0; 0.0; 0.0; 0.0
0.0; 0.0; 0.0; 0.0
0.0; 0.0; 0.0; 0.0
0.0; 0.0; 0.0; 0.0
0.0; 0.0; 0.0; 0.0
1.0; 0.0; 0.0; 0.0
8.0; 0.0; 0.0; 0.0
29.0; 21.0; 14.0; 11.0
69.0; 89.0; 116.0; 118.0
135.0; 167.0; 167.0; 157.0
206.0; 262.0; 247.0; 252.0
252.0; 344.0; 323.0; 288.0
241.0; 313.0; 285.0; 256.0
182.0; 250.0; 259.0; 248.0
100.0; 157.0; 159.0; 142.0
0.0; 0.0; 0.0; 0.0
0.0; 0.0; 0.0; 0.0
0.0; 0.0; 0.0; 0.0
0.0; 0.0; 0.0; 0.0
0.0; 0.0; 0.0; 0.0
0.0; 0.0; 0.0; 0.0
0.0; 0.0; 0.0; 0.0
1.0; 0.0; 0.0; 0.0
16.0; 3.0; 0.0; 0.0
38.0; 37.0; 37.0; 45.0
85.0; 118.0; 129.0; 130.0
150.0; 197.0; 205.0; 217.0
232.0; 310.0; 270.0; 261.0
253.0; 349.0; 324.0; 286.0
228.0; 318.0; 287.0; 248.0
166.0; 249.0; 259.0; 254.0
58.0; 125.0; 147.0; 128.0
0.0; 0.0; 0.0; 0.0
0.0; 0.0; 0.0; 0.0
0.0; 0.0; 0.0; 0.0
0.0; 0.0; 0.0; 0.0
0.0; 0.0; 0.0; 0.0
0.0; 0.0; 0.0; 0.0
0.0; 0.0; 0.0; 0.0
7.0; 0.0; 0.0; 0.0
20.0; 11.0; 3.0; 0.0
43.0; 51.0; 53.0; 66.0
111.0; 137.0; 130.0; 131.0
181.0; 235.0; 251.0; 226.0
253.0; 322.0; 298.0; 263.0
259.0; 330.0; 307.0; 264.0
213.0; 285.0; 258.0; 255.0
130.0; 193.0; 202.0; 214.0
8.0; 32.0; 61.0; 95.0
0.0; 0.0; 0.0; 0.0
0.0; 0.0; 0.0; 0.0
0.0; 0.0; 0.0; 0.0
0.0; 0.0; 0.0; 0.0
0.0; 0.0; 0.0; 0.0
0.0; 0.0; 0.0; 0.0
0.0; 0.0; 0.0; 0.0
12.0; 0.0; 0.0; 0.0
25.0; 13.0; 9.0; 2.0
59.0; 71.0; 91.0; 117.0
129.0; 144.0; 137.0; 134.0
189.0; 249.0; 256.0; 232.0
254.0; 349.0; 342.0; 315.0
253.0; 354.0; 346.0; 322.0
195.0; 282.0; 254.0; 258.0
130.0; 186.0; 193.0; 191.0
0.0; 0.0; 16.0; 16.0
0.0; 0.0; 0.0; 0.0
0.0; 0.0; 0.0; 0.0
0.0; 0.0; 0.0; 0.0
0.0; 0.0; 0.0; 0.0
0.0; 0.0; 0.0; 0.0
0.0; 0.0; 0.0; 0.0
64.0; 73.0; 77.0; 94.0
106.0; 147.0; 132.0; 130.0
140.0; 219.0; 223.0; 230.0
200.0; 310.0; 267.0; 251.0
227.0; 344.0; 311.0; 268.0
209.0; 311.0; 281.0; 250.0
255.0; 3001.0; 1603.0; 946.0
231.0; 3051.0; 1868.0; 1037.0
4.0; 1044.0; 866.0; 580.0
0.0; 0.0; 50.0; 124.0
0.0; 0.0; 0.0; 0.0
0.0; 0.0; 0.0; 0.0
0.0; 0.0; 0.0; 0.0
0.0; 0.0; 0.0; 0.0
1.0; 0.0; 0.0; 0.0
20.0; 0.0; 0.0; 0.0
50.0; 237.0; 171.0; 124.0
211.0; 1780.0; 981.0; 624.0
264.0; 3211.0; 1763.0; 1020.0
261.0; 3429.0; 2216.0; 1192.0
254.0; 3477.0; 2432.0; 1324.0
227.0; 3430.0; 2455.0; 1362.0
154.0; 2950.0; 2141.0; 1203.0
0.0; 0.0; 286.0; 256.0
0.0; 0.0; 0.0; 30.0
0.0; 0.0; 0.0; 0.0
0.0; 0.0; 0.0; 0.0
0.0; 0.0; 0.0; 0.0
0.0; 0.0; 0.0; 0.0
7.0; 0.0; 0.0; 0.0
35.0; 12.0; 0.0; 0.0
122.0; 812.0; 473.0; 313.0
270.0; 2790.0; 1501.0; 884.0
260.0; 3369.0; 2080.0; 1175.0
260.0; 3487.0; 2399.0; 1319.0
254.0; 3438.0; 2467.0; 1387.0
218.0; 3432.0; 2466.0; 1391.0
0.0; 1192.0; 1210.0; 762.0
0.0; 0.0; 131.0; 161.0
0.0; 0.0; 0.0; 1.0
0.0; 0.0; 0.0; 0.0
0.0; 0.0; 0.0; 0.0
0.0; 0.0; 0.0; 0.0
2.0; 0.0; 0.0; 0.0
16.0; 0.0; 0.0; 0.0
58.0; 196.0; 148.0; 117.0
223.0; 1946.0; 1065.0; 646.0
260.0; 3348.0; 1904.0; 1071.0
260.0; 3480.0; 2314.0; 1260.0
251.0; 3510.0; 2500.0; 1398.0
233.0; 3411.0; 2450.0; 1385.0
127.0; 2501.0; 1914.0; 1116.0
0.0; 0.0; 255.0; 249.0
0.0; 0.0; 0.0; 28.0
0.0; 0.0; 0.0; 0.0
0.0; 0.0; 0.0; 0.0
0.0; 0.0; 0.0; 0.0
1.0; 0.0; 0.0; 0.0
14.0; 0.0; 0.0; 0.0
52.0; 278.0; 169.0; 124.0
186.0; 1615.0; 935.0; 602.0
259.0; 3207.0; 1779.0; 1025.0
261.0; 3314.0; 2147.0; 1212.0
251.0; 3337.0; 2340.0; 1316.0
236.0; 3223.0; 2310.0; 1298.0
164.0; 2725.0; 1955.0; 1120.0
0.0; 0.0; 260.0; 256.0
0.0; 0.0; 0.0; 27.0
0.0; 0.0; 0.0; 0.0
0.0; 0.0; 0.0; 0.0
0.0; 0.0; 0.0; 0.0
0.0; 0.0; 0.0; 0.0
35.0; 155.0; 129.0; 99.0
113.0; 774.0; 476.0; 342.0
255.0; 2162.0; 1174.0; 747.0
260.0; 2930.0; 1693.0; 967.0
257.0; 2877.0; 1868.0; 1051.0
256.0; 2814.0; 1882.0; 1053.0
233.0; 2705.0; 1767.0; 1010.0
127.0; 1923.0; 1331.0; 792.0
0.0; 0.0; 192.0; 220.0
0.0; 0.0; 12.0; 51.0
0.0; 0.0; 0.0; 0.0
0.0; 0.0; 0.0; 0.0
7.0; 0.0; 0.0; 0.0
27.0; 27.0; 20.0; 12.0
50.0; 80.0; 96.0; 121.0
80.0; 131.0; 134.0; 138.0
124.0; 172.0; 159.0; 140.0
136.0; 198.0; 209.0; 221.0
168.0; 253.0; 252.0; 248.0
159.0; 254.0; 260.0; 253.0
123.0; 178.0; 203.0; 221.0
82.0; 128.0; 159.0; 146.0
5.0; 0.0; 17.0; 22.0
0.0; 0.0; 0.0; 0.0
0.0; 0.0; 0.0; 0.0
0.0; 0.0; 0.0; 0.0
0.0; 0.0; 0.0; 0.0
1.0; 0.0; 0.0; 0.0
11.0; 0.0; 0.0; 0.0
26.0; 30.0; 17.0; 3.0
38.0; 61.0; 69.0; 77.0
70.0; 116.0; 135.0; 126.0
122.0; 192.0; 184.0; 180.0
136.0; 202.0; 223.0; 248.0
167.0; 258.0; 255.0; 261.0
155.0; 256.0; 256.0; 255.0
128.0; 206.0; 236.0; 257.0
81.0; 128.0; 159.0; 150.0
5.0; 0.0; 20.0; 31.0
0.0; 0.0; 0.0; 0.0
0.0; 0.0; 0.0; 0.0
0.0; 0.0; 0.0; 0.0
0.0; 0.0; 0.0; 0.0
0.0; 0.0; 0.0; 0.0
5.0; 0.0; 0.0; 0.0
28.0; 23.0; 16.0; 4.0
45.0; 64.0; 76.0; 94.0
77.0; 129.0; 132.0; 131.0
126.0; 184.0; 180.0; 164.0
143.0; 212.0; 237.0; 226.0
175.0; 254.0; 267.0; 261.0
166.0; 252.0; 261.0; 258.0
124.0; 210.0; 247.0; 245.0
81.0; 133.0; 173.0; 169.0
0.0; 0.0; 22.0; 39.0
0.0; 0.0; 0.0; 0.0
0.0; 0.0; 0.0; 0.0
0.0; 0.0; 0.0; 0.0
0.0; 0.0; 0.0; 0.0
1.0; 0.0; 0.0; 0.0
8.0; 0.0; 0.0; 0.0
15.0; 8.0; 0.0; 0.0
33.0; 36.0; 27.0; 27.0
63.0; 103.0; 129.0; 118.0
124.0; 183.0; 176.0; 156.0
147.0; 221.0; 249.0; 240.0
170.0; 257.0; 269.0; 255.0
166.0; 255.0; 255.0; 261.0
134.0; 207.0; 243.0; 244.0
102.0; 167.0; 186.0; 190.0
8.0; 0.0; 32.0; 57.0
0.0; 0.0; 0.0; 0.0
0.0; 0.0; 0.0; 0.0
0.0; 0.0; 0.0; 0.0
0.0; 0.0; 0.0; 0.0
1.0; 0.0; 0.0; 0.0
7.0; 0.0; 0.0; 0.0
9.0; 3.0; 0.0; 0.0
29.0; 31.0; 24.0; 21.0
41.0; 59.0; 65.0; 84.0
92.0; 143.0; 128.0; 138.0
147.0; 233.0; 243.0; 230.0
166.0; 257.0; 258.0; 246.0
181.0; 259.0; 261.0; 249.0
150.0; 229.0; 249.0; 254.0
117.0; 180.0; 194.0; 210.0
63.0; 100.0; 136.0; 138.0
0.0; 0.0; 0.0; 0.0
0.0; 0.0; 0.0; 0.0
0.0; 0.0; 0.0; 0.0
0.0; 0.0; 0.0; 0.0
1.0; 0.0; 0.0; 0.0
7.0; 0.0; 0.0; 0.0
9.0; 0.0; 0.0; 0.0
21.0; 13.0; 2.0; 0.0
38.0; 43.0; 38.0; 40.0
68.0; 115.0; 128.0; 125.0
131.0; 245.0; 220.0; 236.0
158.0; 258.0; 251.0; 253.0
180.0; 261.0; 261.0; 248.0
155.0; 240.0; 259.0; 244.0
127.0; 207.0; 239.0; 231.0
81.0; 130.0; 138.0; 132.0
0.0; 0.0; 0.0; 0.0
0.0; 0.0; 0.0; 0.0
0.0; 0.0; 0.0; 0.0
0.0; 0.0; 0.0; 0.0
0.0; 0.0; 0.0; 0.0
1.0; 0.0; 0.0; 0.0
12.0; 0.0; 0.0; 0.0
22.0; 15.0; 5.0; 0.0
38.0; 49.0; 51.0; 58.0
61.0; 96.0; 128.0; 124.0
125.0; 178.0; 166.0; 151.0
193.0; 286.0; 246.0; 246.0
198.0; 267.0; 261.0; 253.0
180.0; 250.0; 261.0; 248.0
129.0; 212.0; 241.0; 251.0
101.0; 181.0; 192.0; 201.0
0.0; 0.0; 12.0; 29.0
0.0; 0.0; 0.0; 0.0
0.0; 0.0; 0.0; 0.0
0.0; 0.0; 0.0; 0.0
0.0; 0.0; 0.0; 0.0
2.0; 0.0; 0.0; 0.0
8.0; 0.0; 0.0; 0.0
17.0; 5.0; 0.0; 0.0
32.0; 29.0; 24.0; 20.0
43.0; 51.0; 59.0; 78.0
80.0; 116.0; 129.0; 128.0
165.0; 253.0; 246.0; 242.0
190.0; 274.0; 254.0; 254.0
187.0; 259.0; 256.0; 252.0
147.0; 224.0; 251.0; 259.0
119.0; 204.0; 230.0; 254.0
31.0; 65.0; 132.0; 136.0
0.0; 0.0; 0.0; 0.0
0.0; 0.0; 0.0; 0.0
0.0; 0.0; 0.0; 0.0
0.0; 0.0; 0.0; 0.0
0.0; 0.0; 0.0; 0.0
6.0; 0.0; 0.0; 0.0
10.0; 0.0; 0.0; 0.0
25.0; 15.0; 4.0; 0.0
32.0; 31.0; 25.0; 22.0
65.0; 86.0; 113.0; 121.0
119.0; 157.0; 149.0; 136.0
156.0; 213.0; 233.0; 254.0
230.0; 317.0; 291.0; 256.0
239.0; 333.0; 303.0; 257.0
196.0; 267.0; 257.0; 239.0
128.0; 182.0; 195.0; 198.0
8.0; 28.0; 51.0; 75.0
0.0; 0.0; 0.0; 0.0
0.0; 0.0; 0.0; 0.0
0.0; 0.0; 0.0; 0.0
0.0; 0.0; 0.0; 0.0
0.0; 0.0; 0.0; 0.0
0.0; 0.0; 0.0; 0.0
1.0; 0.0; 0.0; 0.0
12.0; 0.0; 0.0; 0.0
25.0; 19.0; 9.0; 2.0
53.0; 65.0; 78.0; 99.0
116.0; 134.0; 133.0; 131.0
168.0; 216.0; 235.0; 254.0
245.0; 306.0; 281.0; 253.0
247.0; 308.0; 273.0; 253.0
194.0; 253.0; 256.0; 245.0
125.0; 167.0; 171.0; 155.0
0.0; 10.0; 13.0; 7.0
0.0; 0.0; 0.0; 0.0
0.0; 0.0; 0.0; 0.0
0.0; 0.0; 0.0; 0.0
0.0; 0.0; 0.0; 0.0
0.0; 0.0; 0.0; 0.0
0.0; 0.0; 0.0; 0.0
5.0; 0.0; 0.0; 0.0
10.0; 0.0; 0.0; 0.0
30.0; 28.0; 24.0; 26.0
68.0; 88.0; 112.0; 128.0
126.0; 154.0; 142.0; 129.0
199.0; 257.0; 241.0; 246.0
248.0; 311.0; 279.0; 259.0
231.0; 305.0; 262.0; 253.0
174.0; 250.0; 249.0; 250.0
90.0; 151.0; 136.0; 142.0
0.0; 0.0; 0.0; 0.0
0.0; 0.0; 0.0; 0.0
0.0; 0.0; 0.0; 0.0
0.0; 0.0; 0.0; 0.0
0.0; 0.0; 0.0; 0.0
0.0; 0.0; 0.0; 0.0
0.0; 0.0; 0.0; 0.0
5.0; 0.0; 0.0; 0.0
17.0; 5.0; 0.0; 0.0
34.0; 29.0; 25.0; 27.0
84.0; 114.0; 116.0; 135.0
135.0; 183.0; 183.0; 185.0
209.0; 265.0; 254.0; 258.0
236.0; 316.0; 281.0; 259.0
216.0; 293.0; 259.0; 256.0
152.0; 229.0; 255.0; 226.0
60.0; 127.0; 137.0; 135.0
0.0; 0.0; 0.0; 0.0
0.0; 0.0; 0.0; 0.0
0.0; 0.0; 0.0; 0.0
0.0; 0.0; 0.0; 0.0
0.0; 0.0; 0.0; 0.0
0.0; 0.0; 0.0; 0.0
3.0; 0.0; 0.0; 0.0
15.0; 0.0; 0.0; 0.0
24.0; 11.0; 4.0; 0.0
52.0; 59.0; 73.0; 97.0
107.0; 134.0; 132.0; 141.0
152.0; 189.0; 195.0; 207.0
221.0; 287.0; 255.0; 263.0
239.0; 319.0; 282.0; 258.0
189.0; 262.0; 247.0; 254.0
131.0; 191.0; 201.0; 211.0
30.0; 67.0; 104.0; 130.0
0.0; 0.0; 0.0; 0.0
0.0; 0.0; 0.0; 0.0
0.0; 0.0; 0.0; 0.0
0.0; 0.0; 0.0; 0.0
0.0; 0.0; 0.0; 0.0
0.0; 0.0; 0.0; 0.0
5.0; 0.0; 0.0; 0.0
20.0; 4.0; 0.0; 0.0
36.0; 31.0; 29.0; 27.0
80.0; 110.0; 132.0; 121.0
135.0; 174.0; 175.0; 171.0
197.0; 251.0; 251.0; 257.0
235.0; 311.0; 277.0; 257.0
212.0; 283.0; 257.0; 254.0
149.0; 220.0; 248.0; 238.0
60.0; 126.0; 135.0; 131.0
0.0; 0.0; 0.0; 0.0
0.0; 0.0; 0.0; 0.0
0.0; 0.0; 0.0; 0.0
0.0; 0.0; 0.0; 0.0
0.0; 0.0; 0.0; 0.0
0.0; 0.0; 0.0; 0.0
1.0; 0.0; 0.0; 0.0
16.0; 0.0; 0.0; 0.0
25.0; 16.0; 8.0; 3.0
56.0; 63.0; 80.0; 103.0
109.0; 141.0; 137.0; 133.0
160.0; 204.0; 219.0; 240.0
225.0; 300.0; 268.0; 262.0
229.0; 312.0; 269.0; 260.0
186.0; 254.0; 252.0; 253.0
127.0; 182.0; 186.0; 190.0
18.0; 50.0; 74.0; 106.0
0.0; 0.0; 0.0; 0.0
0.0; 0.0; 0.0; 0.0
0.0; 0.0; 0.0; 0.0
0.0; 0.0; 0.0; 0.0
0.0; 0.0; 0.0; 0.0
0.0; 0.0; 0.0; 0.0
6.0; 0.0; 0.0; 0.0
14.0; 1.0; 0.0; 0.0
36.0; 32.0; 32.0; 38.0
77.0; 109.0; 129.0; 121.0
132.0; 168.0; 165.0; 157.0
200.0; 254.0; 253.0; 256.0
232.0; 308.0; 276.0; 253.0
205.0; 273.0; 246.0; 256.0
141.0; 204.0; 225.0; 248.0
56.0; 123.0; 133.0; 134.0
0.0; 0.0; 0.0; 0.0
0.0; 0.0; 0.0; 0.0
0.0; 0.0; 0.0; 0.0
0.0; 0.0; 0.0; 0.0
0.0; 0.0; 0.0; 0.0
0.0; 0.0; 0.0; 0.0
3.0; 0.0; 0.0; 0.0
12.0; 1.0; 0.0; 0.0
24.0; 16.0; 9.0; 3.0
54.0; 63.0; 75.0; 102.0
105.0; 130.0; 132.0; 137.0
154.0; 192.0; 201.0; 211.0
224.0; 291.0; 257.0; 253.0
228.0; 305.0; 264.0; 250.0
178.0; 256.0; 244.0; 245.0
118.0; 198.0; 211.0; 223.0
17.0; 63.0; 103.0; 132.0
0.0; 0.0; 0.0; 0.0
0.0; 0.0; 0.0; 0.0
0.0; 0.0; 0.0; 0.0
0.0; 0.0; 0.0; 0.0
0.0; 0.0; 0.0; 0.0
1.0; 0.0; 0.0; 0.0
7.0; 0.0; 0.0; 0.0
22.0; 10.0; 1.0; 0.0
44.0; 49.0; 53.0; 70.0
90.0; 129.0; 133.0; 127.0
134.0; 193.0; 204.0; 216.0
202.0; 268.0; 266.0; 256.0
228.0; 306.0; 278.0; 252.0
192.0; 262.0; 253.0; 249.0
132.0; 202.0; 227.0; 242.0
44.0; 109.0; 133.0; 130.0
0.0; 0.0; 0.0; 0.0
0.0; 0.0; 0.0; 0.0
0.0; 0.0; 0.0; 0.0
0.0; 0.0; 0.0; 0.0
0.0; 0.0; 0.0; 0.0
0.0; 0.0; 0.0; 0.0
4.0; 0.0; 0.0; 0.0
8.0; 0.0; 0.0; 0.0
22.0; 9.0; 2.0; 0.0
52.0; 57.0; 66.0; 83.0
100.0; 130.0; 126.0; 130.0
154.0; 197.0; 210.0; 230.0
222.0; 289.0; 261.0; 262.0
234.0; 316.0; 281.0; 254.0
190.0; 258.0; 246.0; 249.0
123.0; 191.0; 200.0; 199.0
17.0; 64.0; 104.0; 133.0
0.0; 0.0; 0.0; 0.0
0.0; 0.0; 0.0; 0.0
0.0; 0.0; 0.0; 0.0
0.0; 0.0; 0.0; 0.0
0.0; 0.0; 0.0; 0.0
0.0; 0.0; 0.0; 0.0
8.0; 0.0; 0.0; 0.0
22.0; 8.0; 2.0; 0.0
42.0; 40.0; 43.0; 52.0
84.0; 118.0; 129.0; 132.0
132.0; 179.0; 181.0; 186.0
201.0; 258.0; 248.0; 258.0
228.0; 303.0; 266.0; 259.0
207.0; 275.0; 249.0; 249.0
145.0; 211.0; 240.0; 238.0
58.0; 122.0; 151.0; 136.0
0.0; 0.0; 0.0; 0.0
0.0; 0.0; 0.0; 0.0
0.0; 0.0; 0.0; 0.0
0.0; 0.0; 0.0; 0.0
0.0; 0.0; 0.0; 0.0
0.0; 0.0; 0.0; 0.0
2.0; 0.0; 0.0; 0.0
13.0; 1.0; 0.0; 0.0
26.0; 18.0; 11.0; 5.0
56.0; 72.0; 91.0; 120.0
116.0; 132.0; 136.0; 132.0
165.0; 210.0; 231.0; 249.0
230.0; 309.0; 280.0; 248.0
223.0; 306.0; 265.0; 258.0
178.0; 254.0; 254.0; 237.0
120.0; 186.0; 198.0; 201.0
3.0; 36.0; 58.0; 84.0
0.0; 0.0; 0.0; 0.0
0.0; 0.0; 0.0; 0.0
0.0; 0.0; 0.0; 0.0
0.0; 0.0; 0.0; 0.0
0.0; 0.0; 0.0; 0.0
0.0; 0.0; 0.0; 0.0
4.0; 0.0; 0.0; 0.0
17.0; 4.0; 0.0; 0.0
35.0; 28.0; 25.0; 22.0
77.0; 103.0; 127.0; 131.0
132.0; 159.0; 158.0; 149.0
188.0; 255.0; 253.0; 251.0
228.0; 314.0; 281.0; 254.0
207.0; 282.0; 255.0; 253.0
149.0; 221.0; 250.0; 249.0
63.0; 130.0; 143.0; 136.0
0.0; 0.0; 0.0; 0.0
0.0; 0.0; 0.0; 0.0
0.0; 0.0; 0.0; 0.0
0.0; 0.0; 0.0; 0.0
0.0; 0.0; 0.0; 0.0
0.0; 0.0; 0.0; 0.0
0.0; 0.0; 0.0; 0.0
5.0; 0.0; 0.0; 0.0
22.0; 9.0; 3.0; 0.0
43.0; 44.0; 52.0; 65.0
86.0; 118.0; 130.0; 127.0
131.0; 185.0; 191.0; 202.0
193.0; 258.0; 257.0; 246.0
225.0; 308.0; 273.0; 249.0
194.0; 261.0; 252.0; 260.0
132.0; 192.0; 210.0; 228.0
40.0; 91.0; 127.0; 135.0
0.0; 0.0; 0.0; 0.0
0.0; 0.0; 0.0; 0.0
0.0; 0.0; 0.0; 0.0
0.0; 0.0; 0.0; 0.0
0.0; 0.0; 0.0; 0.0
0.0; 0.0; 0.0; 0.0
5.0; 0.0; 0.0; 0.0
13.0; 1.0; 0.0; 0.0
31.0; 23.0; 20.0; 17.0
66.0; 85.0; 115.0; 124.0
127.0; 146.0; 140.0; 135.0
179.0; 232.0; 251.0; 233.0
234.0; 316.0; 290.0; 254.0
225.0; 306.0; 266.0; 248.0
168.0; 249.0; 261.0; 248.0
100.0; 167.0; 168.0; 149.0
0.0; 16.0; 22.0; 20.0
0.0; 0.0; 0.0; 0.0
0.0; 0.0; 0.0; 0.0
0.0; 0.0; 0.0; 0.0
0.0; 0.0; 0.0; 0.0
0.0; 0.0; 0.0; 0.0
0.0; 0.0; 0.0; 0.0
9.0; 0.0; 0.0; 0.0
22.0; 11.0; 4.0; 0.0
47.0; 53.0; 61.0; 75.0
92.0; 122.0; 131.0; 129.0
137.0; 168.0; 173.0; 176.0
197.0; 257.0; 259.0; 257.0
228.0; 302.0; 266.0; 259.0
193.0; 260.0; 245.0; 261.0
130.0; 185.0; 196.0; 204.0
33.0; 76.0; 112.0; 134.0
0.0; 0.0; 0.0; 0.0
0.0; 0.0; 0.0; 0.0
0.0; 0.0; 0.0; 0.0
0.0; 0.0; 0.0; 0.0
0.0; 0.0; 0.0; 0.0
0.0; 0.0; 0.0; 0.0
5.0; 0.0; 0.0; 0.0
16.0; 3.0; 0.0; 0.0
31.0; 28.0; 22.0; 21.0
60.0; 83.0; 106.0; 133.0
127.0; 147.0; 138.0; 136.0
184.0; 242.0; 255.0; 247.0
233.0; 320.0; 288.0; 253.0
219.0; 304.0; 262.0; 255.0
166.0; 247.0; 259.0; 245.0
92.0; 158.0; 156.0; 138.0
0.0; 13.0; 13.0; 4.0
0.0; 0.0; 0.0; 0.0
0.0; 0.0; 0.0; 0.0
0.0; 0.0; 0.0; 0.0
0.0; 0.0; 0.0; 0.0
0.0; 0.0; 0.0; 0.0
1.0; 0.0; 0.0; 0.0
11.0; 0.0; 0.0; 0.0
23.0; 14.0; 5.0; 0.0
50.0; 54.0; 64.0; 82.0
93.0; 123.0; 132.0; 130.0
138.0; 168.0; 173.0; 167.0
207.0; 263.0; 253.0; 245.0
227.0; 310.0; 274.0; 247.0
191.0; 263.0; 253.0; 242.0
131.0; 195.0; 210.0; 229.0
33.0; 82.0; 127.0; 128.0
0.0; 0.0; 0.0; 0.0
0.0; 0.0; 0.0; 0.0
0.0; 0.0; 0.0; 0.0
0.0; 0.0; 0.0; 0.0
0.0; 0.0; 0.0; 0.0
0.0; 0.0; 0.0; 0.0
7.0; 0.0; 0.0; 0.0
16.0; 4.0; 0.0; 0.0
33.0; 29.0; 26.0; 29.0
68.0; 87.0; 117.0; 127.0
128.0; 145.0; 139.0; 133.0
178.0; 234.0; 256.0; 238.0
233.0; 319.0; 292.0; 261.0
219.0; 302.0; 266.0; 248.0
167.0; 245.0; 261.0; 240.0
91.0; 155.0; 154.0; 133.0
0.0; 8.0; 13.0; 4.0
0.0; 0.0; 0.0; 0.0
0.0; 0.0; 0.0; 0.0
0.0; 0.0; 0.0; 0.0
0.0; 0.0; 0.0; 0.0
0.0; 0.0; 0.0; 0.0
0.0; 0.0; 0.0; 0.0
6.0; 0.0; 0.0; 0.0
20.0; 8.0; 0.0; 0.0
40.0; 38.0; 42.0; 50.0
77.0; 108.0; 131.0; 130.0
136.0; 169.0; 173.0; 170.0
199.0; 259.0; 254.0; 253.0
223.0; 299.0; 266.0; 260.0
203.0; 271.0; 250.0; 244.0
137.0; 196.0; 219.0; 237.0
50.0; 114.0; 141.0; 132.0
0.0; 0.0; 0.0; 0.0
0.0; 0.0; 0.0; 0.0
0.0; 0.0; 0.0; 0.0
0.0; 0.0; 0.0; 0.0
0.0; 0.0; 0.0; 0.0
0.0; 0.0; 0.0; 0.0
4.0; 0.0; 0.0; 0.0
14.0; 1.0; 0.0; 0.0
26.0; 19.0; 8.0; 3.0
54.0; 66.0; 79.0; 105.0
110.0; 141.0; 137.0; 137.0
153.0; 195.0; 203.0; 222.0
218.0; 283.0; 257.0; 256.0
218.0; 293.0; 260.0; 257.0
176.0; 251.0; 255.0; 253.0
122.0; 195.0; 205.0; 216.0
17.0; 58.0; 97.0; 132.0
0.0; 0.0; 0.0; 0.0
0.0; 0.0; 0.0; 0.0
0.0; 0.0; 0.0; 0.0
0.0; 0.0; 0.0; 0.0
0.0; 0.0; 0.0; 0.0
0.0; 0.0; 0.0; 0.0
11.0; 0.0; 0.0; 0.0
21.0; 10.0; 1.0; 0.0
46.0; 50.0; 57.0; 73.0
92.0; 130.0; 131.0; 134.0
134.0; 193.0; 204.0; 217.0
200.0; 264.0; 261.0; 254.0
225.0; 298.0; 266.0; 254.0
193.0; 257.0; 247.0; 259.0
133.0; 190.0; 202.0; 214.0
40.0; 91.0; 125.0; 128.0
0.0; 0.0; 0.0; 0.0
0.0; 0.0; 0.0; 0.0
0.0; 0.0; 0.0; 0.0
0.0; 0.0; 0.0; 0.0
0.0; 0.0; 0.0; 0.0
0.0; 0.0; 0.0; 0.0
5.0; 0.0; 0.0; 0.0
17.0; 3.0; 0.0; 0.0
30.0; 25.0; 21.0; 21.0
62.0; 77.0; 101.0; 128.0
117.0; 151.0; 137.0; 127.0
176.0; 235.0; 253.0; 239.0
221.0; 302.0; 269.0; 259.0
212.0; 290.0; 254.0; 255.0
158.0; 239.0; 262.0; 241.0
91.0; 165.0; 164.0; 142.0
0.0; 22.0; 30.0; 29.0
0.0; 0.0; 0.0; 0.0
0.0; 0.0; 0.0; 0.0
0.0; 0.0; 0.0; 0.0
0.0; 0.0; 0.0; 0.0
0.0; 0.0; 0.0; 0.0
0.0; 0.0; 0.0; 0.0
8.0; 0.0; 0.0; 0.0
22.0; 9.0; 1.0; 0.0
45.0; 49.0; 53.0; 64.0
89.0; 126.0; 130.0; 133.0
133.0; 168.0; 168.0; 160.0
203.0; 254.0; 259.0; 249.0
222.0; 295.0; 261.0; 256.0
189.0; 262.0; 252.0; 258.0
137.0; 202.0; 227.0; 245.0
50.0; 109.0; 134.0; 138.0
0.0; 0.0; 0.0; 0.0
0.0; 0.0; 0.0; 0.0
0.0; 0.0; 0.0; 0.0
0.0; 0.0; 0.0; 0.0
0.0; 0.0; 0.0; 0.0
0.0; 0.0; 0.0; 0.0
3.0; 0.0; 0.0; 0.0
7.0; 0.0; 0.0; 0.0
25.0; 17.0; 11.0; 4.0
59.0; 71.0; 91.0; 120.0
115.0; 130.0; 135.0; 138.0
160.0; 200.0; 218.0; 240.0
225.0; 293.0; 266.0; 253.0
219.0; 297.0; 265.0; 251.0
170.0; 252.0; 250.0; 250.0
120.0; 178.0; 179.0; 173.0
17.0; 45.0; 65.0; 85.0
0.0; 0.0; 0.0; 0.0
0.0; 0.0; 0.0; 0.0
0.0; 0.0; 0.0; 0.0
0.0; 0.0; 0.0; 0.0
0.0; 0.0; 0.0; 0.0
1.0; 0.0; 0.0; 0.0
13.0; 0.0; 0.0; 0.0
24.0; 14.0; 9.0; 1.0
47.0; 55.0; 65.0; 81.0
93.0; 130.0; 132.0; 131.0
128.0; 185.0; 185.0; 186.0
190.0; 257.0; 258.0; 257.0
216.0; 290.0; 260.0; 253.0
182.0; 251.0; 255.0; 252.0
125.0; 196.0; 213.0; 229.0
37.0; 92.0; 133.0; 124.0
0.0; 0.0; 0.0; 0.0
0.0; 0.0; 0.0; 0.0
0.0; 0.0; 0.0; 0.0
0.0; 0.0; 0.0; 0.0
0.0; 0.0; 0.0; 0.0
0.0; 0.0; 0.0; 0.0
7.0; 0.0; 0.0; 0.0
18.0; 4.0; 0.0; 0.0
35.0; 30.0; 27.0; 29.0
68.0; 91.0; 118.0; 128.0
124.0; 145.0; 134.0; 150.0
170.0; 224.0; 242.0; 246.0
212.0; 285.0; 257.0; 261.0
204.0; 272.0; 252.0; 247.0
150.0; 220.0; 251.0; 253.0
86.0; 146.0; 139.0; 131.0
0.0; 11.0; 5.0; 0.0
0.0; 0.0; 0.0; 0.0
0.0; 0.0; 0.0; 0.0
0.0; 0.0; 0.0; 0.0
0.0; 0.0; 0.0; 0.0
0.0; 0.0; 0.0; 0.0
0.0; 0.0; 0.0; 0.0
1.0; 0.0; 0.0; 0.0
14.0; 2.0; 0.0; 0.0
35.0; 30.0; 31.0; 30.0
69.0; 92.0; 121.0; 121.0
130.0; 155.0; 150.0; 143.0
191.0; 253.0; 248.0; 255.0
229.0; 306.0; 270.0; 264.0
203.0; 273.0; 257.0; 255.0
150.0; 219.0; 246.0; 255.0
67.0; 129.0; 146.0; 128.0
0.0; 0.0; 1.0; 0.0
0.0; 0.0; 0.0; 0.0
0.0; 0.0; 0.0; 0.0
0.0; 0.0; 0.0; 0.0
0.0; 0.0; 0.0; 0.0
0.0; 0.0; 0.0; 0.0
0.0; 0.0; 0.0; 0.0
7.0; 0.0; 0.0; 0.0
18.0; 8.0; 0.0; 0.0
39.0; 40.0; 43.0; 50.0
79.0; 113.0; 130.0; 123.0
135.0; 172.0; 177.0; 175.0
199.0; 254.0; 255.0; 243.0
222.0; 297.0; 267.0; 254.0
194.0; 262.0; 254.0; 246.0
131.0; 217.0; 245.0; 241.0
44.0; 120.0; 138.0; 131.0
0.0; 0.0; 0.0; 0.0
0.0; 0.0; 0.0; 0.0
0.0; 0.0; 0.0; 0.0
0.0; 0.0; 0.0; 0.0
0.0; 0.0; 0.0; 0.0
0.0; 0.0; 0.0; 0.0
1.0; 0.0; 0.0; 0.0
13.0; 0.0; 0.0; 0.0
27.0; 20.0; 18.0; 13.0
58.0; 73.0; 90.0; 123.0
115.0; 130.0; 141.0; 132.0
177.0; 221.0; 244.0; 255.0
233.0; 312.0; 279.0; 248.0
215.0; 295.0; 261.0; 256.0
162.0; 245.0; 245.0; 242.0
102.0; 183.0; 184.0; 181.0
0.0; 28.0; 41.0; 51.0
0.0; 0.0; 0.0; 0.0
0.0; 0.0; 0.0; 0.0
0.0; 0.0; 0.0; 0.0
0.0; 0.0; 0.0; 0.0
0.0; 0.0; 0.0; 0.0
1.0; 0.0; 0.0; 0.0
14.0; 0.0; 0.0; 0.0
24.0; 14.0; 5.0; 0.0
45.0; 50.0; 54.0; 67.0
101.0; 127.0; 134.0; 136.0
147.0; 185.0; 198.0; 209.0
211.0; 272.0; 260.0; 257.0
226.0; 301.0; 264.0; 253.0
181.0; 255.0; 245.0; 252.0
123.0; 186.0; 193.0; 197.0
32.0; 75.0; 118.0; 131.0
0.0; 0.0; 0.0; 0.0
0.0; 0.0; 0.0; 0.0
0.0; 0.0; 0.0; 0.0
0.0; 0.0; 0.0; 0.0
0.0; 0.0; 0.0; 0.0
0.0; 0.0; 0.0; 0.0
10.0; 0.0; 0.0; 0.0
22.0; 9.0; 2.0; 0.0
38.0; 36.0; 35.0; 35.0
75.0; 104.0; 122.0; 126.0
132.0; 159.0; 153.0; 134.0
189.0; 255.0; 259.0; 257.0
225.0; 303.0; 266.0; 254.0
198.0; 266.0; 255.0; 247.0
139.0; 200.0; 222.0; 241.0
49.0; 109.0; 135.0; 134.0
0.0; 0.0; 0.0; 0.0
0.0; 0.0; 0.0; 0.0
0.0; 0.0; 0.0; 0.0
0.0; 0.0; 0.0; 0.0
0.0; 0.0; 0.0; 0.0
0.0; 0.0; 0.0; 0.0
4.0; 0.0; 0.0; 0.0
10.0; 0.0; 0.0; 0.0
22.0; 16.0; 9.0; 3.0
52.0; 62.0; 75.0; 98.0
100.0; 130.0; 126.0; 135.0
149.0; 191.0; 199.0; 209.0
213.0; 275.0; 256.0; 254.0
225.0; 297.0; 265.0; 260.0
181.0; 256.0; 244.0; 249.0
124.0; 184.0; 191.0; 196.0
22.0; 57.0; 86.0; 118.0
0.0; 0.0; 0.0; 0.0
0.0; 0.0; 0.0; 0.0
0.0; 0.0; 0.0; 0.0
0.0; 0.0; 0.0; 0.0
0.0; 0.0; 0.0; 0.0
1.0; 0.0; 0.0; 0.0
7.0; 0.0; 0.0; 0.0
10.0; 1.0; 0.0; 0.0
34.0; 32.0; 29.0; 30.0
77.0; 101.0; 130.0; 129.0
135.0; 160.0; 165.0; 158.0
188.0; 250.0; 253.0; 261.0
221.0; 302.0; 264.0; 259.0
199.0; 268.0; 252.0; 252.0
141.0; 202.0; 226.0; 245.0
58.0; 123.0; 146.0; 127.0
0.0; 0.0; 0.0; 0.0
0.0; 0.0; 0.0; 0.0
0.0; 0.0; 0.0; 0.0
0.0; 0.0; 0.0; 0.0
0.0; 0.0; 0.0; 0.0
0.0; 0.0; 0.0; 0.0
3.0; 0.0; 0.0; 0.0
13.0; 2.0; 0.0; 0.0
27.0; 16.0; 11.0; 3.0
55.0; 66.0; 83.0; 115.0
106.0; 133.0; 136.0; 129.0
157.0; 196.0; 210.0; 231.0
213.0; 279.0; 254.0; 259.0
219.0; 293.0; 260.0; 249.0
169.0; 249.0; 256.0; 247.0
116.0; 172.0; 179.0; 168.0
13.0; 42.0; 59.0; 77.0
0.0; 0.0; 0.0; 0.0
0.0; 0.0; 0.0; 0.0
0.0; 0.0; 0.0; 0.0
0.0; 0.0; 0.0; 0.0
0.0; 0.0; 0.0; 0.0
1.0; 0.0; 0.0; 0.0
3.0; 0.0; 0.0; 0.0
18.0; 4.0; 0.0; 0.0
40.0; 37.0; 35.0; 39.0
80.0; 106.0; 128.0; 130.0
136.0; 166.0; 161.0; 157.0
191.0; 253.0; 244.0; 255.0
226.0; 308.0; 274.0; 253.0
199.0; 269.0; 262.0; 253.0
148.0; 219.0; 242.0; 249.0
64.0; 130.0; 143.0; 136.0
0.0; 0.0; 0.0; 0.0
0.0; 0.0; 0.0; 0.0
0.0; 0.0; 0.0; 0.0
0.0; 0.0; 0.0; 0.0
0.0; 0.0; 0.0; 0.0
0.0; 0.0; 0.0; 0.0
1.0; 0.0; 0.0; 0.0
13.0; 0.0; 0.0; 0.0
20.0; 7.0; 0.0; 0.0
49.0; 51.0; 60.0; 78.0
99.0; 130.0; 133.0; 127.0
142.0; 173.0; 183.0; 187.0
210.0; 266.0; 260.0; 247.0
233.0; 308.0; 275.0; 252.0
191.0; 258.0; 244.0; 258.0
138.0; 197.0; 210.0; 230.0
41.0; 92.0; 131.0; 130.0
0.0; 0.0; 0.0; 0.0
0.0; 0.0; 0.0; 0.0
0.0; 0.0; 0.0; 0.0
0.0; 0.0; 0.0; 0.0
0.0; 0.0; 0.0; 0.0
0.0; 0.0; 0.0; 0.0
1.0; 0.0; 0.0; 0.0
13.0; 1.0; 0.0; 0.0
31.0; 24.0; 22.0; 21.0
67.0; 85.0; 111.0; 115.0
128.0; 146.0; 139.0; 128.0
181.0; 238.0; 259.0; 241.0
232.0; 315.0; 292.0; 256.0
224.0; 307.0; 266.0; 252.0
166.0; 249.0; 254.0; 236.0
93.0; 159.0; 153.0; 134.0
0.0; 11.0; 5.0; 1.0
0.0; 0.0; 0.0; 0.0
0.0; 0.0; 0.0; 0.0
0.0; 0.0; 0.0; 0.0
0.0; 0.0; 0.0; 0.0
0.0; 0.0; 0.0; 0.0
0.0; 0.0; 0.0; 0.0
10.0; 0.0; 0.0; 0.0
22.0; 11.0; 2.0; 0.0
46.0; 50.0; 57.0; 72.0
93.0; 125.0; 134.0; 133.0
136.0; 164.0; 166.0; 156.0
207.0; 263.0; 252.0; 245.0
232.0; 310.0; 277.0; 255.0
198.0; 266.0; 257.0; 256.0
131.0; 210.0; 229.0; 245.0
35.0; 100.0; 138.0; 134.0
0.0; 0.0; 0.0; 0.0
0.0; 0.0; 0.0; 0.0
0.0; 0.0; 0.0; 0.0
0.0; 0.0; 0.0; 0.0
0.0; 0.0; 0.0; 0.0
0.0; 0.0; 0.0; 0.0
4.0; 0.0; 0.0; 0.0
14.0; 3.0; 0.0; 0.0
30.0; 28.0; 24.0; 23.0
65.0; 88.0; 112.0; 126.0
128.0; 150.0; 136.0; 127.0
192.0; 254.0; 260.0; 245.0
246.0; 303.0; 283.0; 258.0
228.0; 300.0; 258.0; 246.0
171.0; 253.0; 258.0; 246.0
96.0; 159.0; 150.0; 131.0
0.0; 4.0; 2.0; 0.0
0.0; 0.0; 0.0; 0.0
0.0; 0.0; 0.0; 0.0
0.0; 0.0; 0.0; 0.0
0.0; 0.0; 0.0; 0.0
0.0; 0.0; 0.0; 0.0
0.0; 0.0; 0.0; 0.0
10.0; 0.0; 0.0; 0.0
15.0; 3.0; 0.0; 0.0
33.0; 28.0; 26.0; 23.0
81.0; 113.0; 136.0; 121.0
133.0; 171.0; 171.0; 162.0
200.0; 259.0; 250.0; 248.0
241.0; 301.0; 267.0; 256.0
218.0; 284.0; 262.0; 250.0
147.0; 213.0; 245.0; 237.0
55.0; 119.0; 147.0; 130.0
0.0; 0.0; 0.0; 0.0
0.0; 0.0; 0.0; 0.0
0.0; 0.0; 0.0; 0.0
0.0; 0.0; 0.0; 0.0
0.0; 0.0; 0.0; 0.0
0.0; 0.0; 0.0; 0.0
1.0; 0.0; 0.0; 0.0
9.0; 0.0; 0.0; 0.0
18.0; 5.0; 0.0; 0.0
45.0; 51.0; 56.0; 73.0
91.0; 124.0; 128.0; 125.0
144.0; 179.0; 187.0; 192.0
217.0; 281.0; 251.0; 253.0
241.0; 295.0; 263.0; 253.0
201.0; 261.0; 253.0; 248.0
134.0; 199.0; 218.0; 236.0
38.0; 87.0; 128.0; 128.0
0.0; 0.0; 0.0; 0.0
0.0; 0.0; 0.0; 0.0
0.0; 0.0; 0.0; 0.0
0.0; 0.0; 0.0; 0.0
0.0; 0.0; 0.0; 0.0
0.0; 0.0; 0.0; 0.0
4.0; 0.0; 0.0; 0.0
13.0; 1.0; 0.0; 0.0
33.0; 24.0; 23.0; 24.0
68.0; 88.0; 119.0; 128.0
126.0; 152.0; 150.0; 138.0
198.0; 256.0; 243.0; 247.0
245.0; 323.0; 300.0; 260.0
225.0; 314.0; 279.0; 247.0
172.0; 252.0; 248.0; 249.0
92.0; 158.0; 153.0; 138.0
0.0; 4.0; 2.0; 0.0
0.0; 0.0; 0.0; 0.0
0.0; 0.0; 0.0; 0.0
0.0; 0.0; 0.0; 0.0
0.0; 0.0; 0.0; 0.0
0.0; 0.0; 0.0; 0.0
0.0; 0.0; 0.0; 0.0
6.0; 0.0; 0.0; 0.0
16.0; 6.0; 0.0; 0.0
29.0; 28.0; 26.0; 23.0
79.0; 106.0; 129.0; 128.0
133.0; 178.0; 179.0; 180.0
207.0; 263.0; 256.0; 255.0
247.0; 305.0; 273.0; 254.0
226.0; 297.0; 258.0; 261.0
164.0; 242.0; 255.0; 248.0
68.0; 132.0; 136.0; 131.0
0.0; 0.0; 0.0; 0.0
0.0; 0.0; 0.0; 0.0
0.0; 0.0; 0.0; 0.0
0.0; 0.0; 0.0; 0.0
0.0; 0.0; 0.0; 0.0
0.0; 0.0; 0.0; 0.0
2.0; 0.0; 0.0; 0.0
8.0; 0.0; 0.0; 0.0
19.0; 6.0; 0.0; 0.0
46.0; 47.0; 54.0; 69.0
93.0; 126.0; 127.0; 129.0
146.0; 190.0; 202.0; 213.0
224.0; 292.0; 259.0; 255.0
246.0; 328.0; 302.0; 263.0
206.0; 283.0; 253.0; 261.0
132.0; 201.0; 213.0; 237.0
40.0; 93.0; 129.0; 133.0
0.0; 0.0; 0.0; 0.0
0.0; 0.0; 0.0; 0.0
0.0; 0.0; 0.0; 0.0
0.0; 0.0; 0.0; 0.0
0.0; 0.0; 0.0; 0.0
0.0; 0.0; 0.0; 0.0
0.0; 0.0; 0.0; 0.0
14.0; 0.0; 0.0; 0.0
27.0; 15.0; 7.0; 1.0
60.0; 72.0; 87.0; 118.0
120.0; 149.0; 138.0; 142.0
170.0; 232.0; 249.0; 230.0
239.0; 329.0; 309.0; 265.0
249.0; 316.0; 291.0; 248.0
195.0; 260.0; 253.0; 256.0
124.0; 167.0; 166.0; 150.0
0.0; 11.0; 12.0; 2.0
0.0; 0.0; 0.0; 0.0
0.0; 0.0; 0.0; 0.0
0.0; 0.0; 0.0; 0.0
0.0; 0.0; 0.0; 0.0
0.0; 0.0; 0.0; 0.0
0.0; 0.0; 0.0; 0.0
3.0; 0.0; 0.0; 0.0
8.0; 0.0; 0.0; 0.0
27.0; 18.0; 10.0; 2.0
61.0; 77.0; 95.0; 124.0
120.0; 155.0; 138.0; 133.0
185.0; 245.0; 253.0; 240.0
245.0; 305.0; 280.0; 256.0
241.0; 293.0; 256.0; 260.0
178.0; 251.0; 255.0; 251.0
110.0; 183.0; 178.0; 166.0
0.0; 16.0; 22.0; 20.0
0.0; 0.0; 0.0; 0.0
0.0; 0.0; 0.0; 0.0
0.0; 0.0; 0.0; 0.0
0.0; 0.0; 0.0; 0.0
0.0; 0.0; 0.0; 0.0
0.0; 0.0; 0.0; 0.0
8.0; 0.0; 0.0; 0.0
21.0; 11.0; 2.0; 0.0
49.0; 52.0; 60.0; 79.0
99.0; 127.0; 136.0; 135.0
144.0; 184.0; 196.0; 205.0
214.0; 277.0; 254.0; 257.0
247.0; 305.0; 272.0; 266.0
214.0; 279.0; 253.0; 249.0
141.0; 197.0; 217.0; 240.0
32.0; 82.0; 122.0; 128.0
0.0; 0.0; 0.0; 0.0
0.0; 0.0; 0.0; 0.0
0.0; 0.0; 0.0; 0.0
0.0; 0.0; 0.0; 0.0
0.0; 0.0; 0.0; 0.0
0.0; 0.0; 0.0; 0.0
3.0; 0.0; 0.0; 0.0
9.0; 0.0; 0.0; 0.0
23.0; 12.0; 2.0; 0.0
51.0; 57.0; 67.0; 85.0
110.0; 138.0; 128.0; 142.0
162.0; 206.0; 221.0; 247.0
242.0; 290.0; 260.0; 265.0
249.0; 305.0; 268.0; 259.0
204.0; 264.0; 250.0; 238.0
132.0; 181.0; 192.0; 192.0
8.0; 38.0; 61.0; 85.0
0.0; 0.0; 0.0; 0.0
0.0; 0.0; 0.0; 0.0
0.0; 0.0; 0.0; 0.0
0.0; 0.0; 0.0; 0.0
0.0; 0.0; 0.0; 0.0
0.0; 0.0; 0.0; 0.0
3.0; 0.0; 0.0; 0.0
15.0; 1.0; 0.0; 0.0
31.0; 20.0; 14.0; 6.0
72.0; 91.0; 119.0; 124.0
128.0; 172.0; 175.0; 172.0
187.0; 253.0; 254.0; 248.0
246.0; 313.0; 288.0; 259.0
246.0; 302.0; 265.0; 252.0
189.0; 257.0; 244.0; 250.0
109.0; 180.0; 170.0; 152.0
0.0; 3.0; 3.0; 0.0
0.0; 0.0; 0.0; 0.0
0.0; 0.0; 0.0; 0.0
0.0; 0.0; 0.0; 0.0
0.0; 0.0; 0.0; 0.0
0.0; 0.0; 0.0; 0.0
0.0; 0.0; 0.0; 0.0
2.0; 0.0; 0.0; 0.0
15.0; 4.0; 0.0; 0.0
35.0; 31.0; 30.0; 27.0
84.0; 118.0; 120.0; 122.0
139.0; 181.0; 185.0; 187.0
215.0; 275.0; 259.0; 253.0
252.0; 333.0; 316.0; 276.0
227.0; 313.0; 277.0; 248.0
164.0; 248.0; 254.0; 237.0
62.0; 130.0; 138.0; 130.0
0.0; 0.0; 0.0; 0.0
0.0; 0.0; 0.0; 0.0
0.0; 0.0; 0.0; 0.0
0.0; 0.0; 0.0; 0.0
0.0; 0.0; 0.0; 0.0
0.0; 0.0; 0.0; 0.0
0.0; 0.0; 0.0; 0.0
11.0; 0.0; 0.0; 0.0
21.0; 4.0; 0.0; 0.0
52.0; 57.0; 66.0; 81.0
109.0; 135.0; 137.0; 133.0
169.0; 219.0; 248.0; 248.0
249.0; 329.0; 318.0; 287.0
252.0; 323.0; 310.0; 267.0
204.0; 276.0; 255.0; 249.0
133.0; 192.0; 202.0; 209.0
7.0; 39.0; 64.0; 99.0
0.0; 0.0; 0.0; 0.0
0.0; 0.0; 0.0; 0.0
0.0; 0.0; 0.0; 0.0
0.0; 0.0; 0.0; 0.0
0.0; 0.0; 0.0; 0.0
0.0; 0.0; 0.0; 0.0
11.0; 1.0; 0.0; 0.0
32.0; 24.0; 17.0; 9.0
64.0; 85.0; 107.0; 113.0
122.0; 156.0; 146.0; 135.0
158.0; 210.0; 228.0; 246.0
199.0; 262.0; 262.0; 255.0
195.0; 257.0; 258.0; 255.0
148.0; 213.0; 247.0; 255.0
96.0; 164.0; 166.0; 163.0
34.0; 74.0; 111.0; 123.0
0.0; 0.0; 0.0; 0.0
0.0; 0.0; 0.0; 0.0
0.0; 0.0; 0.0; 0.0
0.0; 0.0; 0.0; 0.0
0.0; 0.0; 0.0; 0.0
2.0; 0.0; 0.0; 0.0
21.0; 11.0; 1.0; 0.0
36.0; 37.0; 37.0; 39.0
66.0; 85.0; 119.0; 132.0
115.0; 131.0; 155.0; 137.0
147.0; 175.0; 183.0; 185.0
185.0; 251.0; 261.0; 242.0
177.0; 253.0; 255.0; 257.0
133.0; 197.0; 224.0; 245.0
91.0; 150.0; 145.0; 129.0
21.0; 46.0; 68.0; 84.0
0.0; 0.0; 0.0; 0.0
0.0; 0.0; 0.0; 0.0
0.0; 0.0; 0.0; 0.0
0.0; 0.0; 0.0; 0.0
1.0; 0.0; 0.0; 0.0
2.0; 0.0; 0.0; 0.0
20.0; 8.0; 0.0; 0.0
34.0; 34.0; 28.0; 30.0
59.0; 79.0; 104.0; 128.0
101.0; 133.0; 139.0; 129.0
136.0; 162.0; 160.0; 147.0
174.0; 245.0; 247.0; 248.0
178.0; 258.0; 259.0; 254.0
134.0; 235.0; 257.0; 252.0
103.0; 194.0; 218.0; 233.0
33.0; 85.0; 129.0; 134.0
0.0; 0.0; 0.0; 0.0
0.0; 0.0; 0.0; 0.0
0.0; 0.0; 0.0; 0.0
0.0; 0.0; 0.0; 0.0
0.0; 0.0; 0.0; 0.0
1.0; 0.0; 0.0; 0.0
18.0; 9.0; 1.0; 0.0
35.0; 33.0; 29.0; 29.0
54.0; 69.0; 88.0; 116.0
103.0; 133.0; 131.0; 136.0
137.0; 174.0; 173.0; 173.0
170.0; 237.0; 258.0; 251.0
177.0; 250.0; 261.0; 249.0
134.0; 199.0; 239.0; 237.0
100.0; 165.0; 178.0; 179.0
29.0; 70.0; 110.0; 125.0
0.0; 0.0; 0.0; 0.0
0.0; 0.0; 0.0; 0.0
0.0; 0.0; 0.0; 0.0
0.0; 0.0; 0.0; 0.0
0.0; 0.0; 0.0; 0.0
6.0; 0.0; 0.0; 0.0
15.0; 2.0; 0.0; 0.0
33.0; 29.0; 26.0; 26.0
53.0; 69.0; 84.0; 112.0
100.0; 132.0; 136.0; 129.0
135.0; 172.0; 174.0; 172.0
174.0; 248.0; 249.0; 253.0
177.0; 254.0; 257.0; 245.0
133.0; 227.0; 252.0; 238.0
103.0; 186.0; 203.0; 217.0
27.0; 74.0; 118.0; 130.0
0.0; 0.0; 0.0; 0.0
0.0; 0.0; 0.0; 0.0
0.0; 0.0; 0.0; 0.0
0.0; 0.0; 0.0; 0.0
1.0; 0.0; 0.0; 0.0
1.0; 0.0; 0.0; 0.0
19.0; 7.0; 0.0; 0.0
35.0; 33.0; 27.0; 23.0
60.0; 79.0; 105.0; 128.0
106.0; 138.0; 132.0; 134.0
147.0; 186.0; 196.0; 204.0
195.0; 257.0; 256.0; 248.0
200.0; 263.0; 261.0; 249.0
156.0; 228.0; 257.0; 241.0
114.0; 167.0; 178.0; 169.0
22.0; 48.0; 78.0; 106.0
0.0; 0.0; 0.0; 0.0
0.0; 0.0; 0.0; 0.0
0.0; 0.0; 0.0; 0.0
0.0; 0.0; 0.0; 0.0
0.0; 0.0; 0.0; 0.0
0.0; 0.0; 0.0; 0.0
0.0; 0.0; 0.0; 0.0
8.0; 0.0; 0.0; 0.0
23.0; 14.0; 5.0; 0.0
56.0; 66.0; 82.0; 109.0
120.0; 148.0; 134.0; 136.0
177.0; 241.0; 258.0; 248.0
247.0; 333.0; 319.0; 288.0
250.0; 350.0; 343.0; 314.0
200.0; 284.0; 256.0; 244.0
125.0; 202.0; 210.0; 214.0
1.0; 40.0; 70.0; 102.0
0.0; 0.0; 0.0; 0.0
0.0; 0.0; 0.0; 0.0
0.0; 0.0; 0.0; 0.0
0.0; 0.0; 0.0; 0.0
0.0; 0.0; 0.0; 0.0
0.0; 0.0; 0.0; 0.0
1.0; 0.0; 0.0; 0.0
13.0; 2.0; 0.0; 0.0
35.0; 33.0; 30.0; 33.0
80.0; 107.0; 131.0; 131.0
134.0; 191.0; 195.0; 201.0
201.0; 267.0; 259.0; 248.0
250.0; 335.0; 316.0; 279.0
228.0; 317.0; 282.0; 253.0
164.0; 250.0; 259.0; 243.0
74.0; 133.0; 152.0; 133.0
0.0; 0.0; 0.0; 0.0
0.0; 0.0; 0.0; 0.0
0.0; 0.0; 0.0; 0.0
0.0; 0.0; 0.0; 0.0
0.0; 0.0; 0.0; 0.0
0.0; 0.0; 0.0; 0.0
0.0; 0.0; 0.0; 0.0
7.0; 0.0; 0.0; 0.0
11.0; 2.0; 0.0; 0.0
37.0; 35.0; 34.0; 36.0
86.0; 117.0; 129.0; 132.0
144.0; 181.0; 191.0; 197.0
218.0; 278.0; 258.0; 254.0
247.0; 323.0; 293.0; 258.0
213.0; 295.0; 254.0; 253.0
147.0; 221.0; 244.0; 246.0
41.0; 106.0; 128.0; 132.0
0.0; 0.0; 0.0; 0.0
0.0; 0.0; 0.0; 0.0
0.0; 0.0; 0.0; 0.0
0.0; 0.0; 0.0; 0.0
0.0; 0.0; 0.0; 0.0
0.0; 0.0; 0.0; 0.0
3.0; 0.0; 0.0; 0.0
16.0; 0.0; 0.0; 0.0
31.0; 23.0; 20.0; 19.0
71.0; 91.0; 117.0; 131.0
126.0; 167.0; 161.0; 154.0
183.0; 250.0; 247.0; 245.0
239.0; 331.0; 310.0; 264.0
243.0; 305.0; 279.0; 254.0
185.0; 253.0; 246.0; 249.0
110.0; 184.0; 179.0; 168.0
0.0; 12.0; 14.0; 5.0
0.0; 0.0; 0.0; 0.0
0.0; 0.0; 0.0; 0.0
0.0; 0.0; 0.0; 0.0
0.0; 0.0; 0.0; 0.0
0.0; 0.0; 0.0; 0.0
0.0; 0.0; 0.0; 0.0
3.0; 0.0; 0.0; 0.0
17.0; 5.0; 0.0; 0.0
42.0; 42.0; 44.0; 54.0
89.0; 125.0; 136.0; 128.0
138.0; 178.0; 186.0; 190.0
205.0; 261.0; 260.0; 260.0
247.0; 300.0; 271.0; 261.0
219.0; 284.0; 255.0; 262.0
150.0; 216.0; 239.0; 237.0
51.0; 118.0; 131.0; 128.0
0.0; 0.0; 0.0; 0.0
0.0; 0.0; 0.0; 0.0
0.0; 0.0; 0.0; 0.0
0.0; 0.0; 0.0; 0.0
0.0; 0.0; 0.0; 0.0
0.0; 0.0; 0.0; 0.0
2.0; 0.0; 0.0; 0.0
12.0; 0.0; 0.0; 0.0
24.0; 13.0; 5.0; 0.0
58.0; 66.0; 82.0; 109.0
120.0; 134.0; 144.0; 137.0
175.0; 212.0; 235.0; 255.0
244.0; 316.0; 296.0; 263.0
246.0; 310.0; 281.0; 258.0
194.0; 257.0; 245.0; 255.0
130.0; 177.0; 179.0; 179.0
7.0; 29.0; 41.0; 52.0
0.0; 0.0; 0.0; 0.0
0.0; 0.0; 0.0; 0.0
0.0; 0.0; 0.0; 0.0
0.0; 0.0; 0.0; 0.0
0.0; 0.0; 0.0; 0.0
0.0; 0.0; 0.0; 0.0
7.0; 0.0; 0.0; 0.0
17.0; 4.0; 0.0; 0.0
40.0; 37.0; 36.0; 42.0
78.0; 106.0; 129.0; 136.0
132.0; 190.0; 195.0; 203.0
200.0; 267.0; 261.0; 251.0
243.0; 298.0; 270.0; 260.0
228.0; 302.0; 257.0; 246.0
166.0; 245.0; 244.0; 241.0
71.0; 130.0; 144.0; 130.0
0.0; 0.0; 0.0; 0.0
0.0; 0.0; 0.0; 0.0
0.0; 0.0; 0.0; 0.0
0.0; 0.0; 0.0; 0.0
0.0; 0.0; 0.0; 0.0
0.0; 0.0; 0.0; 0.0
0.0; 0.0; 0.0; 0.0
11.0; 0.0; 0.0; 0.0
22.0; 11.0; 2.0; 0.0
52.0; 57.0; 70.0; 89.0
107.0; 134.0; 137.0; 135.0
168.0; 210.0; 238.0; 228.0
246.0; 303.0; 282.0; 249.0
255.0; 309.0; 277.0; 246.0
202.0; 265.0; 252.0; 249.0
133.0; 185.0; 193.0; 201.0
16.0; 45.0; 75.0; 113.0
0.0; 0.0; 0.0; 0.0
0.0; 0.0; 0.0; 0.0
0.0; 0.0; 0.0; 0.0
0.0; 0.0; 0.0; 0.0
0.0; 0.0; 0.0; 0.0
0.0; 0.0; 0.0; 0.0
2.0; 0.0; 0.0; 0.0
13.0; 0.0; 0.0; 0.0
30.0; 29.0; 26.0; 29.0
72.0; 95.0; 124.0; 117.0
131.0; 167.0; 164.0; 150.0
213.0; 273.0; 259.0; 261.0
255.0; 349.0; 333.0; 307.0
193.0; 295.0; 261.0; 246.0
123.0; 211.0; 231.0; 242.0
58.0; 103.0; 133.0; 133.0
0.0; 0.0; 0.0; 0.0
0.0; 0.0; 0.0; 0.0
0.0; 0.0; 0.0; 0.0
0.0; 0.0; 0.0; 0.0
1.0; 0.0; 0.0; 0.0
10.0; 0.0; 0.0; 0.0
17.0; 8.0; 0.0; 0.0
33.0; 30.0; 29.0; 28.0
50.0; 66.0; 83.0; 112.0
106.0; 163.0; 134.0; 141.0
181.0; 293.0; 247.0; 236.0
211.0; 324.0; 288.0; 260.0
199.0; 292.0; 261.0; 252.0
148.0; 225.0; 253.0; 242.0
101.0; 164.0; 175.0; 179.0
0.0; 0.0; 8.0; 23.0
0.0; 0.0; 0.0; 0.0
0.0; 0.0; 0.0; 0.0
0.0; 0.0; 0.0; 0.0
0.0; 0.0; 0.0; 0.0
2.0; 0.0; 0.0; 0.0
11.0; 0.0; 0.0; 0.0
17.0; 6.0; 0.0; 0.0
26.0; 21.0; 9.0; 2.0
41.0; 47.0; 52.0; 61.0
70.0; 104.0; 131.0; 128.0
143.0; 254.0; 224.0; 233.0
187.0; 323.0; 269.0; 254.0
225.0; 355.0; 323.0; 274.0
182.0; 275.0; 256.0; 256.0
134.0; 190.0; 205.0; 231.0
35.0; 31.0; 89.0; 128.0
0.0; 0.0; 0.0; 0.0
0.0; 0.0; 0.0; 0.0
0.0; 0.0; 0.0; 0.0
0.0; 0.0; 0.0; 0.0
0.0; 0.0; 0.0; 0.0
3.0; 0.0; 0.0; 0.0
8.0; 0.0; 0.0; 0.0
15.0; 3.0; 0.0; 0.0
34.0; 30.0; 31.0; 26.0
50.0; 61.0; 73.0; 97.0
98.0; 142.0; 128.0; 134.0
171.0; 284.0; 230.0; 240.0
215.0; 351.0; 309.0; 256.0
215.0; 328.0; 295.0; 257.0
169.0; 253.0; 249.0; 259.0
124.0; 175.0; 195.0; 210.0
0.0; 0.0; 22.0; 57.0
0.0; 0.0; 0.0; 0.0
0.0; 0.0; 0.0; 0.0
0.0; 0.0; 0.0; 0.0
0.0; 0.0; 0.0; 0.0
0.0; 0.0; 0.0; 0.0
2.0; 0.0; 0.0; 0.0
13.0; 0.0; 0.0; 0.0
28.0; 16.0; 10.0; 1.0
41.0; 48.0; 51.0; 59.0
69.0; 96.0; 127.0; 130.0
132.0; 220.0; 221.0; 229.0
187.0; 320.0; 266.0; 255.0
231.0; 361.0; 329.0; 282.0
199.0; 288.0; 261.0; 244.0
131.0; 212.0; 248.0; 243.0
59.0; 100.0; 160.0; 153.0
0.0; 0.0; 0.0; 0.0
0.0; 0.0; 0.0; 0.0
0.0; 0.0; 0.0; 0.0
0.0; 0.0; 0.0; 0.0
1.0; 0.0; 0.0; 0.0
1.0; 0.0; 0.0; 0.0
8.0; 0.0; 0.0; 0.0
22.0; 11.0; 3.0; 0.0
35.0; 37.0; 35.0; 35.0
53.0; 73.0; 95.0; 127.0
93.0; 139.0; 131.0; 127.0
171.0; 269.0; 218.0; 231.0
195.0; 295.0; 252.0; 250.0
185.0; 258.0; 252.0; 253.0
129.0; 213.0; 246.0; 250.0
94.0; 167.0; 178.0; 181.0
29.0; 28.0; 70.0; 120.0
0.0; 0.0; 0.0; 1.0
0.0; 0.0; 0.0; 0.0
0.0; 0.0; 0.0; 0.0
0.0; 0.0; 0.0; 0.0
0.0; 0.0; 0.0; 0.0
0.0; 0.0; 0.0; 0.0
0.0; 0.0; 0.0; 0.0
10.0; 0.0; 0.0; 0.0
22.0; 11.0; 2.0; 0.0
42.0; 46.0; 48.0; 58.0
78.0; 116.0; 121.0; 126.0
139.0; 188.0; 195.0; 203.0
215.0; 291.0; 255.0; 258.0
256.0; 328.0; 301.0; 262.0
234.0; 317.0; 277.0; 249.0
166.0; 249.0; 248.0; 241.0
50.0; 119.0; 142.0; 134.0
0.0; 0.0; 0.0; 0.0
0.0; 0.0; 0.0; 0.0
0.0; 0.0; 0.0; 0.0
0.0; 0.0; 0.0; 0.0
0.0; 0.0; 0.0; 0.0
0.0; 0.0; 0.0; 0.0
0.0; 0.0; 0.0; 0.0
7.0; 0.0; 0.0; 0.0
14.0; 1.0; 0.0; 0.0
49.0; 47.0; 52.0; 66.0
98.0; 129.0; 128.0; 127.0
160.0; 202.0; 213.0; 236.0
242.0; 293.0; 265.0; 257.0
254.0; 313.0; 285.0; 259.0
215.0; 284.0; 259.0; 255.0
136.0; 194.0; 212.0; 232.0
24.0; 72.0; 118.0; 132.0
0.0; 0.0; 0.0; 0.0
0.0; 0.0; 0.0; 0.0
0.0; 0.0; 0.0; 0.0
0.0; 0.0; 0.0; 0.0
0.0; 0.0; 0.0; 0.0
0.0; 0.0; 0.0; 0.0
0.0; 0.0; 0.0; 0.0
8.0; 0.0; 0.0; 0.0
22.0; 15.0; 4.0; 1.0
50.0; 58.0; 68.0; 85.0
115.0; 130.0; 132.0; 142.0
177.0; 227.0; 244.0; 252.0
249.0; 331.0; 309.0; 271.0
249.0; 340.0; 324.0; 279.0
187.0; 261.0; 261.0; 255.0
128.0; 178.0; 184.0; 182.0
7.0; 31.0; 51.0; 71.0
0.0; 0.0; 0.0; 0.0
0.0; 0.0; 0.0; 0.0
0.0; 0.0; 0.0; 0.0
0.0; 0.0; 0.0; 0.0
0.0; 0.0; 0.0; 0.0
0.0; 0.0; 0.0; 0.0
4.0; 0.0; 0.0; 0.0
17.0; 1.0; 0.0; 0.0
32.0; 28.0; 27.0; 29.0
69.0; 92.0; 114.0; 133.0
130.0; 150.0; 137.0; 133.0
191.0; 252.0; 241.0; 245.0
247.0; 329.0; 310.0; 272.0
233.0; 321.0; 290.0; 262.0
170.0; 253.0; 247.0; 242.0
92.0; 161.0; 157.0; 137.0
0.0; 0.0; 1.0; 0.0
0.0; 0.0; 0.0; 0.0
0.0; 0.0; 0.0; 0.0
0.0; 0.0; 0.0; 0.0
0.0; 0.0; 0.0; 0.0
0.0; 0.0; 0.0; 0.0
0.0; 0.0; 0.0; 0.0
1.0; 0.0; 0.0; 0.0
15.0; 3.0; 0.0; 0.0
39.0; 37.0; 36.0; 39.0
81.0; 114.0; 141.0; 129.0
130.0; 189.0; 197.0; 202.0
203.0; 271.0; 257.0; 253.0
248.0; 310.0; 288.0; 253.0
229.0; 302.0; 261.0; 247.0
164.0; 243.0; 247.0; 240.0
67.0; 133.0; 132.0; 130.0
0.0; 0.0; 0.0; 0.0
0.0; 0.0; 0.0; 0.0
0.0; 0.0; 0.0; 0.0
0.0; 0.0; 0.0; 0.0
0.0; 0.0; 0.0; 0.0
0.0; 0.0; 0.0; 0.0
1.0; 0.0; 0.0; 0.0
11.0; 0.0; 0.0; 0.0
23.0; 14.0; 7.0; 2.0
48.0; 53.0; 61.0; 75.0
104.0; 133.0; 135.0; 134.0
156.0; 198.0; 213.0; 235.0
237.0; 312.0; 283.0; 253.0
247.0; 327.0; 299.0; 255.0
196.0; 270.0; 249.0; 236.0
125.0; 194.0; 202.0; 207.0
13.0; 56.0; 95.0; 128.0
0.0; 0.0; 0.0; 0.0
0.0; 0.0; 0.0; 0.0
0.0; 0.0; 0.0; 0.0
0.0; 0.0; 0.0; 0.0
0.0; 0.0; 0.0; 0.0
0.0; 0.0; 0.0; 0.0
5.0; 0.0; 0.0; 0.0
17.0; 2.0; 0.0; 0.0
35.0; 32.0; 31.0; 35.0
77.0; 105.0; 131.0; 128.0
136.0; 177.0; 183.0; 186.0
199.0; 260.0; 265.0; 250.0
247.0; 312.0; 287.0; 253.0
229.0; 306.0; 268.0; 251.0
163.0; 244.0; 245.0; 237.0
73.0; 138.0; 132.0; 127.0
0.0; 0.0; 0.0; 0.0
0.0; 0.0; 0.0; 0.0
0.0; 0.0; 0.0; 0.0
0.0; 0.0; 0.0; 0.0
0.0; 0.0; 0.0; 0.0
0.0; 0.0; 0.0; 0.0
1.0; 0.0; 0.0; 0.0
8.0; 0.0; 0.0; 0.0
21.0; 9.0; 2.0; 0.0
46.0; 47.0; 51.0; 64.0
92.0; 126.0; 133.0; 127.0
134.0; 175.0; 178.0; 176.0
210.0; 270.0; 250.0; 248.0
242.0; 295.0; 266.0; 259.0
212.0; 271.0; 261.0; 244.0
141.0; 197.0; 217.0; 234.0
43.0; 96.0; 131.0; 131.0
0.0; 0.0; 0.0; 0.0
0.0; 0.0; 0.0; 0.0
0.0; 0.0; 0.0; 0.0
0.0; 0.0; 0.0; 0.0
0.0; 0.0; 0.0; 0.0
0.0; 0.0; 0.0; 0.0
1.0; 0.0; 0.0; 0.0
11.0; 0.0; 0.0; 0.0
27.0; 18.0; 12.0; 4.0
53.0; 68.0; 81.0; 112.0
118.0; 129.0; 138.0; 128.0
178.0; 221.0; 249.0; 248.0
245.0; 322.0; 303.0; 268.0
244.0; 309.0; 283.0; 254.0
191.0; 253.0; 256.0; 253.0
119.0; 184.0; 185.0; 179.0
1.0; 25.0; 44.0; 57.0
0.0; 0.0; 0.0; 0.0
0.0; 0.0; 0.0; 0.0
0.0; 0.0; 0.0; 0.0
0.0; 0.0; 0.0; 0.0
0.0; 0.0; 0.0; 0.0
0.0; 0.0; 0.0; 0.0
2.0; 0.0; 0.0; 0.0
17.0; 4.0; 0.0; 0.0
32.0; 28.0; 25.0; 25.0
81.0; 110.0; 132.0; 120.0
135.0; 180.0; 181.0; 182.0
212.0; 268.0; 256.0; 249.0
247.0; 321.0; 294.0; 253.0
219.0; 302.0; 265.0; 253.0
154.0; 235.0; 255.0; 233.0
61.0; 130.0; 150.0; 131.0
0.0; 0.0; 0.0; 0.0
0.0; 0.0; 0.0; 0.0
0.0; 0.0; 0.0; 0.0
0.0; 0.0; 0.0; 0.0
0.0; 0.0; 0.0; 0.0
0.0; 0.0; 0.0; 0.0
1.0; 0.0; 0.0; 0.0
3.0; 0.0; 0.0; 0.0
17.0; 8.0; 0.0; 0.0
45.0; 50.0; 57.0; 72.0
93.0; 123.0; 130.0; 128.0
148.0; 183.0; 194.0; 204.0
227.0; 297.0; 260.0; 254.0
254.0; 313.0; 283.0; 255.0
212.0; 284.0; 256.0; 261.0
135.0; 194.0; 205.0; 219.0
28.0; 76.0; 119.0; 137.0
0.0; 0.0; 0.0; 0.0
0.0; 0.0; 0.0; 0.0
0.0; 0.0; 0.0; 0.0
0.0; 0.0; 0.0; 0.0
0.0; 0.0; 0.0; 0.0
0.0; 0.0; 0.0; 0.0
0.0; 0.0; 0.0; 0.0
8.0; 0.0; 0.0; 0.0
23.0; 12.0; 4.0; 0.0
56.0; 66.0; 78.0; 103.0
115.0; 139.0; 135.0; 130.0
177.0; 241.0; 254.0; 232.0
251.0; 323.0; 305.0; 265.0
251.0; 320.0; 300.0; 258.0
193.0; 266.0; 251.0; 249.0
81.0; 168.0; 148.0; 131.0
0.0; 0.0; 0.0; 0.0
0.0; 0.0; 0.0; 0.0
0.0; 0.0; 0.0; 0.0
0.0; 0.0; 0.0; 0.0
3.0; 0.0; 0.0; 0.0
5.0; 0.0; 0.0; 0.0
14.0; 5.0; 0.0; 0.0
25.0; 17.0; 9.0; 1.0
45.0; 58.0; 69.0; 85.0
79.0; 133.0; 130.0; 128.0
131.0; 232.0; 237.0; 208.0
137.0; 245.0; 254.0; 242.0
172.0; 267.0; 262.0; 248.0
152.0; 247.0; 247.0; 256.0
123.0; 208.0; 242.0; 243.0
74.0; 127.0; 161.0; 153.0
0.0; 0.0; 5.0; 13.0
0.0; 0.0; 0.0; 0.0
0.0; 0.0; 0.0; 0.0
0.0; 0.0; 0.0; 0.0
0.0; 0.0; 0.0; 0.0
4.0; 0.0; 0.0; 0.0
5.0; 0.0; 0.0; 0.0
22.0; 12.0; 4.0; 0.0
40.0; 46.0; 47.0; 51.0
64.0; 115.0; 115.0; 126.0
126.0; 199.0; 187.0; 176.0
148.0; 252.0; 253.0; 230.0
169.0; 261.0; 255.0; 248.0
159.0; 252.0; 255.0; 242.0
127.0; 216.0; 250.0; 251.0
86.0; 139.0; 148.0; 139.0
7.0; 0.0; 12.0; 20.0
0.0; 0.0; 0.0; 0.0
0.0; 0.0; 0.0; 0.0
0.0; 0.0; 0.0; 0.0
0.0; 0.0; 0.0; 0.0
4.0; 0.0; 0.0; 0.0
9.0; 0.0; 0.0; 0.0
21.0; 11.0; 2.0; 0.0
36.0; 40.0; 42.0; 49.0
57.0; 97.0; 118.0; 127.0
114.0; 177.0; 159.0; 135.0
152.0; 250.0; 248.0; 246.0
170.0; 260.0; 254.0; 256.0
167.0; 259.0; 262.0; 251.0
132.0; 202.0; 242.0; 249.0
102.0; 165.0; 177.0; 183.0
21.0; 0.0; 32.0; 61.0
0.0; 0.0; 0.0; 0.0
0.0; 0.0; 0.0; 0.0
0.0; 0.0; 0.0; 0.0
0.0; 0.0; 0.0; 0.0
1.0; 0.0; 0.0; 0.0
10.0; 0.0; 0.0; 0.0
13.0; 6.0; 0.0; 0.0
31.0; 36.0; 34.0; 34.0
51.0; 77.0; 95.0; 124.0
103.0; 178.0; 156.0; 138.0
147.0; 253.0; 251.0; 245.0
162.0; 255.0; 261.0; 258.0
171.0; 259.0; 253.0; 248.0
134.0; 208.0; 248.0; 243.0
110.0; 177.0; 197.0; 210.0
34.0; 29.0; 79.0; 124.0
0.0; 0.0; 0.0; 0.0
0.0; 0.0; 0.0; 0.0
0.0; 0.0; 0.0; 0.0
0.0; 0.0; 0.0; 0.0
4.0; 0.0; 0.0; 0.0
10.0; 0.0; 0.0; 0.0
17.0; 5.0; 0.0; 0.0
34.0; 31.0; 22.0; 21.0
53.0; 81.0; 97.0; 131.0
103.0; 173.0; 148.0; 136.0
143.0; 249.0; 226.0; 248.0
165.0; 257.0; 248.0; 255.0
168.0; 256.0; 260.0; 245.0
132.0; 216.0; 248.0; 256.0
114.0; 160.0; 177.0; 178.0
36.0; 17.0; 56.0; 97.0
0.0; 0.0; 0.0; 0.0
0.0; 0.0; 0.0; 0.0
0.0; 0.0; 0.0; 0.0
0.0; 0.0; 0.0; 0.0
2.0; 0.0; 0.0; 0.0
8.0; 0.0; 0.0; 0.0
13.0; 0.0; 0.0; 0.0
24.0; 23.0; 8.0; 1.0
45.0; 57.0; 61.0; 73.0
76.0; 124.0; 130.0; 133.0
133.0; 224.0; 231.0; 248.0
151.0; 254.0; 252.0; 261.0
169.0; 258.0; 260.0; 254.0
151.0; 243.0; 260.0; 245.0
119.0; 186.0; 207.0; 228.0
77.0; 124.0; 137.0; 138.0
0.0; 0.0; 0.0; 0.0
0.0; 0.0; 0.0; 0.0
0.0; 0.0; 0.0; 0.0
0.0; 0.0; 0.0; 0.0
1.0; 0.0; 0.0; 0.0
2.0; 0.0; 0.0; 0.0
9.0; 0.0; 0.0; 0.0
25.0; 19.0; 9.0; 2.0
41.0; 45.0; 47.0; 54.0
68.0; 114.0; 120.0; 125.0
136.0; 232.0; 240.0; 212.0
166.0; 254.0; 261.0; 242.0
187.0; 273.0; 261.0; 256.0
172.0; 250.0; 264.0; 248.0
132.0; 211.0; 244.0; 254.0
92.0; 160.0; 160.0; 151.0
0.0; 0.0; 3.0; 4.0
0.0; 0.0; 0.0; 0.0
0.0; 0.0; 0.0; 0.0
0.0; 0.0; 0.0; 0.0
0.0; 0.0; 0.0; 0.0
0.0; 0.0; 0.0; 0.0
0.0; 0.0; 0.0; 0.0
0.0; 0.0; 0.0; 0.0
6.0; 0.0; 0.0; 0.0
14.0; 1.0; 0.0; 0.0
37.0; 38.0; 38.0; 44.0
84.0; 120.0; 133.0; 124.0
137.0; 179.0; 176.0; 178.0
212.0; 282.0; 259.0; 249.0
256.0; 321.0; 301.0; 265.0
232.0; 313.0; 274.0; 252.0
174.0; 258.0; 248.0; 249.0
82.0; 144.0; 133.0; 142.0
0.0; 0.0; 0.0; 0.0
0.0; 0.0; 0.0; 0.0
0.0; 0.0; 0.0; 0.0
0.0; 0.0; 0.0; 0.0
0.0; 0.0; 0.0; 0.0
0.0; 0.0; 0.0; 0.0
0.0; 0.0; 0.0; 0.0
10.0; 0.0; 0.0; 0.0
17.0; 6.0; 0.0; 0.0
46.0; 50.0; 57.0; 69.0
94.0; 126.0; 131.0; 129.0
144.0; 180.0; 187.0; 194.0
220.0; 285.0; 261.0; 256.0
249.0; 312.0; 276.0; 252.0
225.0; 297.0; 253.0; 255.0
151.0; 219.0; 244.0; 239.0
46.0; 111.0; 142.0; 130.0
0.0; 0.0; 0.0; 0.0
0.0; 0.0; 0.0; 0.0
0.0; 0.0; 0.0; 0.0
0.0; 0.0; 0.0; 0.0
0.0; 0.0; 0.0; 0.0
0.0; 0.0; 0.0; 0.0
4.0; 0.0; 0.0; 0.0
16.0; 1.0; 0.0; 0.0
31.0; 30.0; 26.0; 29.0
71.0; 91.0; 116.0; 127.0
128.0; 158.0; 147.0; 129.0
193.0; 255.0; 260.0; 244.0
246.0; 330.0; 312.0; 274.0
230.0; 320.0; 294.0; 253.0
176.0; 253.0; 253.0; 263.0
94.0; 164.0; 154.0; 133.0
0.0; 11.0; 10.0; 1.0
0.0; 0.0; 0.0; 0.0
0.0; 0.0; 0.0; 0.0
0.0; 0.0; 0.0; 0.0
0.0; 0.0; 0.0; 0.0
0.0; 0.0; 0.0; 0.0
0.0; 0.0; 0.0; 0.0
3.0; 0.0; 0.0; 0.0
18.0; 5.0; 0.0; 0.0
41.0; 42.0; 43.0; 50.0
86.0; 117.0; 134.0; 127.0
138.0; 172.0; 176.0; 178.0
197.0; 255.0; 261.0; 260.0
239.0; 324.0; 296.0; 255.0
216.0; 293.0; 261.0; 248.0
151.0; 223.0; 249.0; 249.0
52.0; 123.0; 141.0; 129.0
0.0; 0.0; 0.0; 0.0
0.0; 0.0; 0.0; 0.0
0.0; 0.0; 0.0; 0.0
0.0; 0.0; 0.0; 0.0
0.0; 0.0; 0.0; 0.0
0.0; 0.0; 0.0; 0.0
1.0; 0.0; 0.0; 0.0
14.0; 0.0; 0.0; 0.0
31.0; 20.0; 16.0; 12.0
62.0; 78.0; 98.0; 123.0
124.0; 138.0; 139.0; 135.0
170.0; 218.0; 246.0; 239.0
242.0; 297.0; 278.0; 258.0
236.0; 312.0; 268.0; 254.0
177.0; 255.0; 246.0; 246.0
114.0; 170.0; 172.0; 159.0
1.0; 16.0; 24.0; 22.0
0.0; 0.0; 0.0; 0.0
0.0; 0.0; 0.0; 0.0
0.0; 0.0; 0.0; 0.0
0.0; 0.0; 0.0; 0.0
0.0; 0.0; 0.0; 0.0
0.0; 0.0; 0.0; 0.0
9.0; 0.0; 0.0; 0.0
22.0; 11.0; 2.0; 0.0
44.0; 50.0; 57.0; 72.0
92.0; 125.0; 125.0; 130.0
141.0; 181.0; 190.0; 201.0
212.0; 272.0; 257.0; 258.0
237.0; 315.0; 286.0; 256.0
206.0; 277.0; 251.0; 240.0
137.0; 202.0; 222.0; 244.0
41.0; 98.0; 135.0; 128.0
0.0; 0.0; 0.0; 0.0
0.0; 0.0; 0.0; 0.0
0.0; 0.0; 0.0; 0.0
0.0; 0.0; 0.0; 0.0
0.0; 0.0; 0.0; 0.0
0.0; 0.0; 0.0; 0.0
3.0; 0.0; 0.0; 0.0
16.0; 1.0; 0.0; 0.0
29.0; 22.0; 16.0; 15.0
67.0; 87.0; 114.0; 122.0
130.0; 151.0; 148.0; 138.0
185.0; 247.0; 249.0; 245.0
241.0; 305.0; 278.0; 257.0
231.0; 310.0; 267.0; 251.0
179.0; 258.0; 241.0; 247.0
107.0; 185.0; 179.0; 165.0
0.0; 14.0; 17.0; 8.0
0.0; 0.0; 0.0; 0.0
0.0; 0.0; 0.0; 0.0
0.0; 0.0; 0.0; 0.0
0.0; 0.0; 0.0; 0.0
0.0; 0.0; 0.0; 0.0
0.0; 0.0; 0.0; 0.0
6.0; 0.0; 0.0; 0.0
19.0; 9.0; 0.0; 0.0
38.0; 36.0; 38.0; 36.0
87.0; 120.0; 136.0; 131.0
136.0; 169.0; 173.0; 173.0
202.0; 259.0; 248.0; 255.0
233.0; 312.0; 279.0; 251.0
214.0; 285.0; 259.0; 254.0
147.0; 215.0; 239.0; 227.0
51.0; 118.0; 131.0; 130.0
0.0; 0.0; 0.0; 0.0
0.0; 0.0; 0.0; 0.0
0.0; 0.0; 0.0; 0.0
0.0; 0.0; 0.0; 0.0
0.0; 0.0; 0.0; 0.0
0.0; 0.0; 0.0; 0.0
1.0; 0.0; 0.0; 0.0
4.0; 0.0; 0.0; 0.0
21.0; 13.0; 2.0; 0.0
50.0; 58.0; 69.0; 91.0
108.0; 134.0; 134.0; 139.0
160.0; 202.0; 211.0; 237.0
232.0; 306.0; 271.0; 266.0
243.0; 303.0; 264.0; 250.0
194.0; 258.0; 252.0; 248.0
129.0; 199.0; 219.0; 240.0
15.0; 62.0; 104.0; 137.0
0.0; 0.0; 0.0; 0.0
0.0; 0.0; 0.0; 0.0
0.0; 0.0; 0.0; 0.0
0.0; 0.0; 0.0; 0.0
0.0; 0.0; 0.0; 0.0
0.0; 0.0; 0.0; 0.0
1.0; 0.0; 0.0; 0.0
17.0; 5.0; 0.0; 0.0
33.0; 30.0; 25.0; 26.0
81.0; 114.0; 136.0; 125.0
135.0; 182.0; 188.0; 194.0
205.0; 261.0; 258.0; 259.0
247.0; 303.0; 272.0; 254.0
223.0; 291.0; 253.0; 249.0
155.0; 227.0; 244.0; 243.0
59.0; 127.0; 131.0; 132.0
0.0; 0.0; 0.0; 0.0
0.0; 0.0; 0.0; 0.0
0.0; 0.0; 0.0; 0.0
0.0; 0.0; 0.0; 0.0
0.0; 0.0; 0.0; 0.0
0.0; 0.0; 0.0; 0.0
0.0; 0.0; 0.0; 0.0
8.0; 0.0; 0.0; 0.0
22.0; 11.0; 2.0; 0.0
49.0; 55.0; 66.0; 84.0
102.0; 130.0; 126.0; 134.0
157.0; 202.0; 211.0; 233.0
240.0; 293.0; 266.0; 253.0
251.0; 306.0; 276.0; 253.0
200.0; 262.0; 252.0; 256.0
135.0; 181.0; 186.0; 194.0
15.0; 47.0; 74.0; 109.0
0.0; 0.0; 0.0; 0.0
0.0; 0.0; 0.0; 0.0
0.0; 0.0; 0.0; 0.0
0.0; 0.0; 0.0; 0.0
0.0; 0.0; 0.0; 0.0
0.0; 0.0; 0.0; 0.0
3.0; 0.0; 0.0; 0.0
11.0; 0.0; 0.0; 0.0
34.0; 26.0; 24.0; 24.0
76.0; 104.0; 127.0; 131.0
131.0; 188.0; 197.0; 209.0
201.0; 267.0; 256.0; 257.0
252.0; 313.0; 288.0; 257.0
233.0; 318.0; 276.0; 250.0
171.0; 250.0; 260.0; 239.0
77.0; 134.0; 156.0; 131.0
0.0; 0.0; 0.0; 0.0
0.0; 0.0; 0.0; 0.0
0.0; 0.0; 0.0; 0.0
0.0; 0.0; 0.0; 0.0
0.0; 0.0; 0.0; 0.0
0.0; 0.0; 0.0; 0.0
0.0; 0.0; 0.0; 0.0
1.0; 0.0; 0.0; 0.0
12.0; 1.0; 0.0; 0.0
38.0; 36.0; 35.0; 41.0
86.0; 119.0; 132.0; 125.0
156.0; 203.0; 216.0; 238.0
248.0; 306.0; 273.0; 265.0
258.0; 354.0; 328.0; 296.0
237.0; 336.0; 309.0; 258.0
173.0; 255.0; 252.0; 251.0
38.0; 108.0; 132.0; 134.0
0.0; 0.0; 0.0; 0.0
0.0; 0.0; 0.0; 0.0
0.0; 0.0; 0.0; 0.0
0.0; 0.0; 0.0; 0.0
0.0; 0.0; 0.0; 0.0
0.0; 0.0; 0.0; 0.0
0.0; 0.0; 0.0; 0.0
0.0; 0.0; 0.0; 0.0
12.0; 0.0; 0.0; 0.0
44.0; 43.0; 43.0; 46.0
196.0; 252.0; 226.0; 230.0
249.0; 334.0; 287.0; 256.0
363.0; 2748.0; 1459.0; 878.0
281.0; 2845.0; 1728.0; 1002.0
293.0; 2995.0; 1885.0; 1051.0
204.0; 2115.0; 1470.0; 840.0
0.0; 0.0; 122.0; 168.0
0.0; 0.0; 0.0; 1.0
0.0; 0.0; 0.0; 0.0
0.0; 0.0; 0.0; 0.0
0.0; 0.0; 0.0; 0.0
0.0; 0.0; 0.0; 0.0
0.0; 0.0; 0.0; 0.0
0.0; 0.0; 0.0; 0.0
30.0; 394.0; 253.0; 158.0
473.0; 2326.0; 1253.0; 744.0
2555.0; 3888.0; 2232.0; 1193.0
2802.0; 4012.0; 2701.0; 1463.0
2800.0; 4036.0; 2913.0; 1645.0
2729.0; 3933.0; 2837.0; 1657.0
646.0; 565.0; 897.0; 683.0
0.0; 0.0; 109.0; 171.0
0.0; 0.0; 0.0; 8.0
0.0; 0.0; 0.0; 0.0
0.0; 0.0; 0.0; 0.0
0.0; 0.0; 0.0; 0.0
0.0; 0.0; 0.0; 0.0
0.0; 0.0; 0.0; 0.0
0.0; 0.0; 0.0; 0.0
411.0; 738.0; 473.0; 311.0
2340.0; 3612.0; 1879.0; 1045.0
2834.0; 4028.0; 2525.0; 1365.0
2970.0; 4066.0; 2860.0; 1587.0
2942.0; 3948.0; 2809.0; 1622.0
2716.0; 3639.0; 2619.0; 1522.0
0.0; 0.0; 384.0; 379.0
0.0; 0.0; 0.0; 70.0
0.0; 0.0; 0.0; 0.0
0.0; 0.0; 0.0; 0.0
0.0; 0.0; 0.0; 0.0
0.0; 0.0; 0.0; 0.0
0.0; 0.0; 0.0; 0.0
0.0; 0.0; 0.0; 0.0
0.0; 96.0; 94.0; 118.0
1008.0; 1589.0; 879.0; 551.0
2835.0; 3949.0; 2114.0; 1181.0
2993.0; 4067.0; 2672.0; 1449.0
3069.0; 4077.0; 2891.0; 1646.0
2939.0; 3927.0; 2851.0; 1681.0
1600.0; 2030.0; 1776.0; 1135.0
0.0; 0.0; 205.0; 257.0
0.0; 0.0; 0.0; 38.0
0.0; 0.0; 0.0; 0.0
0.0; 0.0; 0.0; 0.0
0.0; 0.0; 0.0; 0.0
0.0; 0.0; 0.0; 0.0
0.0; 0.0; 0.0; 0.0
0.0; 0.0; 0.0; 0.0
389.0; 688.0; 415.0; 254.0
2380.0; 3569.0; 1834.0; 1032.0
2977.0; 4058.0; 2544.0; 1367.0
3094.0; 4081.0; 2896.0; 1632.0
3077.0; 4075.0; 2970.0; 1729.0
2832.0; 3713.0; 2727.0; 1611.0
0.0; 0.0; 427.0; 386.0
0.0; 0.0; 7.0; 84.0
0.0; 0.0; 0.0; 0.0
0.0; 0.0; 0.0; 0.0
0.0; 0.0; 0.0; 0.0
0.0; 0.0; 0.0; 0.0
0.0; 0.0; 0.0; 0.0
0.0; 0.0; 0.0; 0.0
0.0; 80.0; 120.0; 124.0
1157.0; 1653.0; 931.0; 608.0
2962.0; 4005.0; 2186.0; 1206.0
3102.0; 4083.0; 2712.0; 1470.0
3128.0; 4078.0; 2922.0; 1641.0
3056.0; 4037.0; 2957.0; 1701.0
1434.0; 1758.0; 1602.0; 1051.0
0.0; 0.0; 166.0; 212.0
0.0; 0.0; 0.0; 22.0
0.0; 0.0; 0.0; 0.0
0.0; 0.0; 0.0; 0.0
0.0; 0.0; 0.0; 0.0
0.0; 0.0; 0.0; 0.0
0.0; 0.0; 0.0; 0.0
0.0; 97.0; 87.0; 110.0
1062.0; 1484.0; 851.0; 529.0
3023.0; 4015.0; 2158.0; 1175.0
3138.0; 4087.0; 2726.0; 1475.0
3175.0; 4075.0; 2936.0; 1664.0
3112.0; 4039.0; 2973.0; 1724.0
1625.0; 2053.0; 1767.0; 1121.0
0.0; 0.0; 209.0; 254.0
0.0; 0.0; 0.0; 39.0
0.0; 0.0; 0.0; 0.0
0.0; 0.0; 0.0; 0.0
0.0; 0.0; 0.0; 0.0
0.0; 0.0; 0.0; 0.0
0.0; 0.0; 0.0; 0.0
0.0; 0.0; 0.0; 0.0
402.0; 686.0; 396.0; 256.0
2444.0; 3594.0; 1858.0; 1054.0
2364.0; 3949.0; 2472.0; 1326.0
1488.0; 3817.0; 2710.0; 1514.0
986.0; 3431.0; 2534.0; 1473.0
558.0; 2976.0; 2195.0; 1275.0
63.0; 0.0; 346.0; 328.0
0.0; 0.0; 73.0; 129.0
0.0; 0.0; 0.0; 2.0
0.0; 0.0; 0.0; 0.0
0.0; 0.0; 0.0; 0.0
0.0; 0.0; 0.0; 0.0
1.0; 0.0; 0.0; 0.0
22.0; 20.0; 11.0; 4.0
61.0; 88.0; 104.0; 123.0
131.0; 197.0; 192.0; 190.0
216.0; 297.0; 262.0; 259.0
267.0; 367.0; 356.0; 342.0
259.0; 358.0; 367.0; 369.0
216.0; 312.0; 292.0; 254.0
132.0; 209.0; 234.0; 250.0
2.0; 41.0; 91.0; 131.0
0.0; 0.0; 0.0; 0.0
0.0; 0.0; 0.0; 0.0
0.0; 0.0; 0.0; 0.0
0.0; 0.0; 0.0; 0.0
0.0; 0.0; 0.0; 0.0
0.0; 0.0; 0.0; 0.0
1.0; 0.0; 0.0; 0.0
12.0; 1.0; 0.0; 0.0
26.0; 15.0; 3.0; 0.0
62.0; 75.0; 90.0; 118.0
134.0; 147.0; 134.0; 150.0
197.0; 255.0; 232.0; 254.0
259.0; 324.0; 304.0; 266.0
256.0; 324.0; 302.0; 263.0
197.0; 261.0; 252.0; 249.0
126.0; 173.0; 174.0; 172.0
0.0; 7.0; 18.0; 19.0
0.0; 0.0; 0.0; 0.0
0.0; 0.0; 0.0; 0.0
0.0; 0.0; 0.0; 0.0
0.0; 0.0; 0.0; 0.0
0.0; 0.0; 0.0; 0.0
0.0; 0.0; 0.0; 0.0
1.0; 0.0; 0.0; 0.0
14.0; 2.0; 0.0; 0.0
26.0; 23.0; 13.0; 7.0
73.0; 98.0; 120.0; 131.0
130.0; 166.0; 163.0; 153.0
204.0; 260.0; 245.0; 255.0
256.0; 337.0; 319.0; 284.0
245.0; 316.0; 292.0; 248.0
185.0; 257.0; 253.0; 246.0
101.0; 160.0; 150.0; 134.0
0.0; 0.0; 0.0; 0.0
0.0; 0.0; 0.0; 0.0
0.0; 0.0; 0.0; 0.0
0.0; 0.0; 0.0; 0.0
0.0; 0.0; 0.0; 0.0
0.0; 0.0; 0.0; 0.0
0.0; 0.0; 0.0; 0.0
5.0; 0.0; 0.0; 0.0
17.0; 3.0; 0.0; 0.0
42.0; 39.0; 43.0; 51.0
89.0; 122.0; 132.0; 127.0
148.0; 190.0; 198.0; 211.0
228.0; 297.0; 259.0; 253.0
251.0; 337.0; 315.0; 278.0
226.0; 316.0; 285.0; 250.0
165.0; 250.0; 256.0; 246.0
62.0; 130.0; 132.0; 138.0
0.0; 0.0; 0.0; 0.0
0.0; 0.0; 0.0; 0.0
0.0; 0.0; 0.0; 0.0
0.0; 0.0; 0.0; 0.0
0.0; 0.0; 0.0; 0.0
0.0; 0.0; 0.0; 0.0
0.0; 0.0; 0.0; 0.0
9.0; 0.0; 0.0; 0.0
22.0; 11.0; 4.0; 0.0
54.0; 64.0; 75.0; 97.0
112.0; 135.0; 134.0; 128.0
170.0; 215.0; 232.0; 245.0
250.0; 331.0; 316.0; 278.0
257.0; 330.0; 319.0; 275.0
210.0; 289.0; 258.0; 255.0
131.0; 201.0; 217.0; 231.0
16.0; 59.0; 104.0; 136.0
0.0; 0.0; 0.0; 0.0
0.0; 0.0; 0.0; 0.0
0.0; 0.0; 0.0; 0.0
0.0; 0.0; 0.0; 0.0
0.0; 0.0; 0.0; 0.0
0.0; 0.0; 0.0; 0.0
1.0; 0.0; 0.0; 0.0
16.0; 2.0; 0.0; 0.0
37.0; 31.0; 33.0; 36.0
84.0; 112.0; 138.0; 131.0
137.0; 175.0; 176.0; 175.0
214.0; 278.0; 254.0; 249.0
256.0; 319.0; 296.0; 254.0
238.0; 322.0; 282.0; 250.0
178.0; 253.0; 245.0; 252.0
70.0; 133.0; 129.0; 126.0
0.0; 0.0; 0.0; 0.0
0.0; 0.0; 0.0; 0.0
0.0; 0.0; 0.0; 0.0
0.0; 0.0; 0.0; 0.0
0.0; 0.0; 0.0; 0.0
0.0; 0.0; 0.0; 0.0
0.0; 0.0; 0.0; 0.0
8.0; 0.0; 0.0; 0.0
15.0; 1.0; 0.0; 0.0
40.0; 44.0; 46.0; 61.0
99.0; 129.0; 135.0; 129.0
157.0; 199.0; 213.0; 228.0
238.0; 315.0; 276.0; 260.0
254.0; 343.0; 323.0; 287.0
220.0; 310.0; 274.0; 249.0
146.0; 227.0; 244.0; 242.0
35.0; 104.0; 134.0; 133.0
0.0; 0.0; 0.0; 0.0
0.0; 0.0; 0.0; 0.0
0.0; 0.0; 0.0; 0.0
0.0; 0.0; 0.0; 0.0
0.0; 0.0; 0.0; 0.0
0.0; 0.0; 0.0; 0.0
0.0; 0.0; 0.0; 0.0
5.0; 0.0; 0.0; 0.0
22.0; 12.0; 3.0; 0.0
56.0; 67.0; 84.0; 109.0
127.0; 137.0; 130.0; 137.0
195.0; 246.0; 246.0; 254.0
259.0; 322.0; 302.0; 266.0
251.0; 342.0; 321.0; 270.0
202.0; 283.0; 248.0; 251.0
125.0; 179.0; 174.0; 166.0
0.0; 0.0; 6.0; 1.0
0.0; 0.0; 0.0; 0.0
0.0; 0.0; 0.0; 0.0
0.0; 0.0; 0.0; 0.0
0.0; 0.0; 0.0; 0.0
0.0; 0.0; 0.0; 0.0
0.0; 0.0; 0.0; 0.0
0.0; 0.0; 0.0; 0.0
0.0; 0.0; 0.0; 0.0
0.0; 0.0; 0.0; 0.0
15.0; 12.0; 8.0; 9.0
0.0; 3.0; 11.0; 18.0
0.0; 0.0; 17.0; 44.0
234.0; 232.0; 218.0; 217.0
3119.0; 1272.0; 782.0; 563.0
3107.0; 3851.0; 2003.0; 1138.0
3107.0; 3821.0; 2339.0; 1261.0
0.0; 0.0; 261.0; 249.0
0.0; 0.0; 0.0; 20.0
0.0; 0.0; 0.0; 0.0
0.0; 0.0; 0.0; 0.0
0.0; 0.0; 0.0; 0.0
0.0; 0.0; 0.0; 0.0
0.0; 0.0; 0.0; 0.0
0.0; 0.0; 0.0; 0.0
0.0; 0.0; 0.0; 0.0
0.0; 0.0; 0.0; 0.0
0.0; 0.0; 0.0; 0.0
449.0; 744.0; 446.0; 279.0
3166.0; 3934.0; 2083.0; 1184.0
3244.0; 4015.0; 2569.0; 1399.0
3242.0; 3963.0; 2727.0; 1545.0
3194.0; 3935.0; 2772.0; 1594.0
1532.0; 1495.0; 1362.0; 887.0
0.0; 0.0; 139.0; 171.0
0.0; 0.0; 0.0; 8.0
0.0; 0.0; 0.0; 0.0
0.0; 0.0; 0.0; 0.0
0.0; 0.0; 0.0; 0.0
0.0; 0.0; 0.0; 0.0
0.0; 0.0; 0.0; 0.0
0.0; 0.0; 0.0; 0.0
0.0; 29.0; 0.0; 0.0
514.0; 864.0; 523.0; 329.0
3160.0; 3930.0; 2081.0; 1184.0
3237.0; 3997.0; 2544.0; 1385.0
3256.0; 4025.0; 2789.0; 1560.0
3237.0; 3873.0; 2717.0; 1577.0
1554.0; 1491.0; 1373.0; 892.0
0.0; 0.0; 128.0; 188.0
0.0; 0.0; 0.0; 15.0
0.0; 0.0; 0.0; 0.0
0.0; 0.0; 0.0; 0.0
0.0; 0.0; 0.0; 0.0
0.0; 0.0; 0.0; 0.0
0.0; 0.0; 0.0; 0.0
0.0; 0.0; 0.0; 0.0
0.0; 50.0; 23.0; 28.0
1125.0; 1590.0; 888.0; 550.0
3187.0; 3951.0; 2101.0; 1166.0
3254.0; 4013.0; 2575.0; 1412.0
3273.0; 3999.0; 2727.0; 1524.0
3168.0; 3822.0; 2708.0; 1553.0
0.0; 0.0; 401.0; 381.0
0.0; 0.0; 0.0; 73.0
0.0; 0.0; 0.0; 0.0
0.0; 0.0; 0.0; 0.0
0.0; 0.0; 0.0; 0.0
0.0; 0.0; 0.0; 0.0
0.0; 0.0; 0.0; 0.0
0.0; 0.0; 0.0; 0.0
0.0; 0.0; 0.0; 0.0
0.0; 0.0; 0.0; 0.0
0.0; 82.0; 113.0; 112.0
2119.0; 2703.0; 1407.0; 844.0
3224.0; 3943.0; 2273.0; 1225.0
3287.0; 4018.0; 2663.0; 1462.0
3284.0; 3924.0; 2712.0; 1529.0
3076.0; 3491.0; 2458.0; 1417.0
0.0; 0.0; 333.0; 308.0
0.0; 0.0; 0.0; 48.0
0.0; 0.0; 0.0; 0.0
0.0; 0.0; 0.0; 0.0
0.0; 0.0; 0.0; 0.0
0.0; 0.0; 0.0; 0.0
0.0; 0.0; 0.0; 0.0
0.0; 0.0; 0.0; 0.0
0.0; 0.0; 0.0; 0.0
0.0; 10.0; 22.0; 23.0
843.0; 1178.0; 679.0; 414.0
3216.0; 3925.0; 2073.0; 1178.0
3297.0; 3986.0; 2530.0; 1385.0
3296.0; 3980.0; 2699.0; 1522.0
3186.0; 3805.0; 2663.0; 1523.0
0.0; 0.0; 395.0; 355.0
0.0; 0.0; 17.0; 85.0
0.0; 0.0; 0.0; 0.0
0.0; 0.0; 0.0; 0.0
0.0; 0.0; 0.0; 0.0
0.0; 0.0; 0.0; 0.0
0.0; 0.0; 0.0; 0.0
0.0; 0.0; 0.0; 0.0
0.0; 0.0; 0.0; 0.0
0.0; 0.0; 0.0; 0.0
0.0; 0.0; 0.0; 0.0
557.0; 542.0; 324.0; 245.0
3099.0; 3838.0; 1965.0; 1105.0
3248.0; 3958.0; 2474.0; 1335.0
3210.0; 3928.0; 2682.0; 1480.0
3183.0; 3842.0; 2668.0; 1500.0
381.0; 800.0; 911.0; 634.0
0.0; 0.0; 120.0; 195.0
0.0; 0.0; 0.0; 18.0
0.0; 0.0; 0.0; 0.0
0.0; 0.0; 0.0; 0.0
0.0; 0.0; 0.0; 0.0
0.0; 0.0; 0.0; 0.0
0.0; 0.0; 0.0; 0.0
0.0; 0.0; 0.0; 0.0
0.0; 0.0; 0.0; 0.0
0.0; 0.0; 0.0; 0.0
2046.0; 1678.0; 909.0; 572.0
3234.0; 3822.0; 2039.0; 1156.0
