## File generated by myo_cap software 
## Available from github.com/ddantas/myo_cap 
## Timestamp: 2019-12-26_09-36-58 
##  
## EMG capture settings 
##  
# sampleRate: 2000 
# channelsPerBoard: 4 
# nBoards: 1 
# bitsPerSample: 12 
# ch1;ch2;ch3;ch4
3311;-3900;-3900;284
175;160;148;132
118;111;108;108
104;100;96;100
95;94;94;90
84;86;86;84
84;79;72;78
78;70;74;76
74;74;76;68
68;70;68;68
68;64;64;68
64;60;64;62
60;64;66;60
64;60;56;60
62;54;60;62
56;60;64;60
60;64;60;62
66;60;64;64
60;64;68;66
64;66;64;64
68;68;64;64
68;68;68;70
68;64;70;66
68;70;68;68
70;70;68;68
68;64;70;68
64;70;70;68
70;68;68;68
71;64;70;71
68;64;66;64
64;70;64;64
68;64;64;68
64;64;66;66
60;64;66;64
64;60;60;60
62;54;56;60
55;54;60;58
54;60;60;54
56;54;52;54
54;54;54;56
52;54;54;52
52;54;46;50
54;52;52;55
47;48;54;52
46;52;54;52
52;54;52;54
54;48;52;55
52;52;54;54
48;54;54;54
56;54;54;60
54;52;60;60
56;60;60;54
62;64;60;64
68;62;64;68
68;68;68;64
64;68;68;64
64;70;64;64
64;64;68;70
68;64;68;64
64;64;64;64
68;68;64;68
70;66;64;70
64;64;68;64
64;64;64;64
64;64;60;64
64;54;60;60
60;60;60;60
60;62;60;56
64;54;56;60
56;52;54;54
52;56;60;52
52;54;52;52
54;50;50;54
52;46;54;52
52;54;52;52
54;58;48;54
52;46;52;52
52;54;52;52
52;52;50;54
52;48;54;54
52;54;56;52
56;54;52;52
60;54;56;54
54;52;60;54
56;60;56;60
62;60;60;64
62;60;68;64
64;68;68;68
68;68;64;64
70;68;68;68
64;68;68;64
64;68;64;64
68;66;66;68
68;64;68;68
64;68;70;64
64;68;64;64
64;64;64;64
62;64;64;60
62;64;64;60
64;62;60;64
64;58;62;60
60;60;60;54
60;54;52;60
54;54;56;54
52;54;54;52
54;52;46;52
54;48;52;54
47;52;54;52
52;52;52;50
54;47;52;54
52;46;52;47
48;52;47;44
52;47;46;54
54;48;54;54
52;52;55;52
54;55;54;60
60;54;56;60
58;60;60;56
60;64;60;56
66;64;64;66
64;64;68;68
64;64;66;64
68;64;64;66
66;64;64;68
64;64;70;64
64;70;64;64
66;64;66;68
64;68;68;64
66;70;68;64
71;68;64;68
64;60;64;64
64;60;64;60
60;62;56;60
62;54;60;60
56;60;58;54
58;56;52;56
54;54;54;56
52;54;54;52
52;56;52;52
55;48;52;54
52;52;54;48
52;46;46;46
52;52;52;52
50;46;54;52
46;52;46;47
52;46;52;52
46;52;54;52
54;54;52;52
60;52;54;60
52;54;60;54
54;58;56;60
60;56;60;64
60;64;64;60
64;68;64;64
68;68;68;68
68;64;64;68
64;64;68;64
68;70;64;64
70;64;68;68
64;64;68;68
64;70;68;64
68;60;64;68
64;64;68;66
64;68;64;64
64;62;64;64
64;64;64;62
60;64;62;60
64;60;60;60
56;52;56;56
52;56;54;52
54;52;52;52
52;46;54;52
46;52;52;48
52;46;46;52
47;46;52;50
48;46;52;46
52;55;52;52
54;46;47;54
52;52;56;52
52;55;52;52
56;52;52;55
54;52;60;54
54;56;60;54
60;60;56;60
56;56;62;60
64;64;64;60
66;64;60;68
66;64;68;68
68;68;68;64
70;70;64;68
68;64;68;68
64;68;68;66
68;70;64;68
68;64;68;68
64;68;68;64
68;64;64;70
66;64;68;68
64;68;68;64
64;64;64;64
64;60;68;68
60;64;60;56
60;60;54;60
56;54;54;55
54;54;54;46
54;55;52;54
58;52;52;54
52;52;54;52
52;54;52;48
52;46;46;52
47;52;52;52
47;52;46;50
56;52;47;54
47;48;52;52
48;52;54;52
54;56;52;52
54;52;54;54
52;54;60;52
60;60;54;56
60;56;60;60
60;64;64;60
60;68;64;64
64;64;64;68
68;64;64;66
64;68;70;66
64;68;68;68
68;68;64;68
64;64;68;68
68;68;64;64
68;64;64;68
64;64;66;64
64;68;64;64
68;64;60;64
62;60;64;62
60;60;64;60
60;60;60;60
60;60;56;60
52;54;62;54
54;60;60;52
56;56;52;55
52;52;54;52
52;52;52;46
52;52;47;54
52;48;52;47
47;50;52;46
52;52;46;52
52;52;54;52
52;54;52;52
58;56;52;54
54;54;60;52
54;60;60;56
60;60;54;60
60;60;60;60
60;64;60;60
64;64;64;68
66;64;68;70
64;68;68;68
64;68;68;64
68;64;64;70
64;68;68;68
68;71;64;68
70;68;68;68
66;68;68;64
70;70;64;68
68;64;68;64
64;68;68;64
68;64;60;64
60;60;64;60
60;60;56;56
60;54;52;60
54;54;60;52
52;56;52;52
56;48;52;52
46;48;52;46
52;52;47;48
52;46;52;52
47;46;52;46
50;52;47;52
54;46;46;52
47;48;52;47
52;54;47;52
54;48;52;52
52;52;54;52
54;54;54;54
60;52;54;60
52;54;64;56
60;60;56;60
64;60;64;70
64;64;66;64
64;68;64;64
68;64;64;68
68;68;70;68
64;70;66;66
68;64;68;68
68;68;70;68
64;68;68;68
68;68;68;68
64;64;68;60
64;68;60;64
64;64;64;62
64;64;64;64
60;60;60;64
60;54;60;56
58;60;54;54
54;56;54;56
52;58;60;54
58;56;52;54
54;50;54;54
54;56;52;52
54;46;48;54
52;52;54;47
48;52;52;48
54;47;46;54
47;52;54;48
52;60;52;52
54;48;52;54
54;52;58;52
52;60;54;54
60;60;58;64
62;60;64;62
60;68;64;64
68;64;64;66
68;64;68;64
64;68;64;64
68;66;66;70
64;64;68;64
66;68;68;68
70;64;64;70
64;64;68;64
68;68;64;64
68;64;64;64
60;64;64;60
64;64;60;64
66;60;68;64
60;60;60;56
62;56;60;62
56;56;56;54
52;56;52;52
60;54;52;55
52;52;55;52
52;54;47;52
52;47;52;52
47;46;52;47
46;52;46;46
52;40;44;47
46;47;50;44
46;52;44;48
47;44;50;52
46;52;52;48
52;54;48;54
52;46;52;54
52;54;56;54
56;60;54;60
60;60;60;66
60;64;66;60
64;66;64;64
68;68;68;70
68;68;72;70
68;71;68;68
68;64;64;68
64;64;68;68
64;68;64;64
68;66;64;64
64;64;64;64
60;66;62;60
64;64;64;64
62;60;64;64
60;60;62;60
60;56;56;60
55;52;56;55
52;52;52;46
54;54;48;52
52;44;52;47
46;52;52;48
52;52;46;52
47;44;52;46
46;46;46;46
52;46;44;52
46;46;52;46
46;46;46;46
52;44;46;54
47;52;54;52
55;54;52;52
55;46;54;56
54;54;54;54
58;60;54;56
60;52;60;60
58;60;60;54
64;66;60;64
64;60;64;68
60;64;68;64
64;70;64;64
66;68;68;64
64;68;68;64
70;70;68;68
70;64;68;68
64;64;64;64
66;66;64;64
64;64;64;64
64;64;64;60
64;62;64;64
60;56;60;60
56;60;60;60
56;54;54;56
56;54;54;54
52;54;54;52
54;52;47;54
52;52;46;52
52;52;47;44
52;46;44;52
50;46;52;52
46;52;47;46
50;46;46;52
52;46;52;48
52;52;52;46
52;52;52;56
52;48;54;54
52;60;54;52
60;60;52;60
58;54;60;60
60;64;62;60
66;64;64;64
66;64;68;68
64;68;68;64
68;68;64;68
68;68;68;70
64;68;68;68
64;68;64;68
70;64;64;68
64;68;68;64
64;68;64;64
68;64;64;64
62;60;64;60
60;68;60;60
64;60;60;66
60;60;64;60
56;60;55;52
60;52;52;54
54;52;54;52
52;48;52;46
52;44;44;52
47;46;52;46
46;52;44;46
52;40;44;46
46;44;46;46
46;46;46;44
52;52;46;52
46;46;52;46
52;46;46;52
52;52;52;54
52;52;55;52
54;52;52;56
58;52;56;55
55;60;58;56
62;60;64;64
64;64;68;62
64;70;64;64
68;64;64;68
64;64;68;64
64;68;68;64
68;64;64;68
64;64;70;64
64;70;68;68
68;64;64;68
64;64;68;64
64;64;60;64
62;56;64;64
56;60;60;60
62;56;54;60
56;52;60;52
54;60;52;54
55;52;54;55
52;54;54;50
54;54;46;52
54;46;52;52
52;52;52;46
54;52;47;54
50;44;52;46
47;52;47;46
52;46;52;52
52;46;52;47
52;54;52;52
58;46;52;54
52;52;62;54
58;54;54;54
62;56;60;60
62;64;60;58
64;60;64;64
64;64;64;64
64;68;64;64
68;64;64;68
64;64;70;68
68;68;68;64
66;64;68;68
70;68;70;64
64;68;66;68
70;64;64;66
64;64;68;60
64;64;60;64
62;60;64;62
54;60;60;56
60;60;56;60
56;52;54;55
52;54;54;48
54;54;46;54
46;47;52;46
50;50;46;46
52;44;46;50
44;46;52;46
47;46;47;44
48;44;46;47
44;44;47;44
44;46;44;44
52;44;46;47
47;52;52;46
52;50;48;52
52;46;52;52
48;54;54;52
60;54;54;60
58;54;60;54
60;62;60;60
64;64;64;68
64;64;68;64
64;64;64;64
68;64;64;66
64;64;68;64
68;68;64;64
68;60;64;68
64;64;68;64
68;68;64;64
68;60;64;68
64;64;68;60
64;66;64;64
64;60;64;60
60;60;60;58
60;60;60;56
60;60;56;60
52;56;54;52
54;52;52;52
54;52;54;52
54;52;54;46
52;52;48;52
52;46;52;48
46;46;47;46
52;47;44;52
47;46;46;46
46;52;47;46
52;46;46;52
52;46;54;47
48;52;52;52
55;48;54;58
52;52;60;52
60;62;60;60
60;60;64;60
64;60;64;64
64;66;64;66
64;64;68;66
64;68;68;64
68;64;64;68
64;64;66;64
64;68;64;66
68;68;64;68
66;66;68;64
64;64;64;64
66;56;60;64
60;60;64;60
60;62;60;60
62;60;60;60
56;56;60;60
56;60;54;56
60;55;52;54
52;52;56;46
52;55;52;52
48;46;52;52
47;52;47;46
48;52;52;46
47;44;44;46
44;48;46;44
47;54;46;48
46;46;52;52
48;52;52;52
54;52;52;52
52;52;52;54
48;54;52;52
56;52;52;60
54;58;60;60
60;62;60;56
64;56;64;64
60;64;64;60
64;64;64;64
68;66;64;68
64;64;70;66
64;70;64;64
68;68;64;68
68;64;68;66
64;68;64;64
71;66;64;66
64;64;68;60
64;62;62;60
64;56;64;62
56;56;60;52
56;60;54;58
55;54;52;54
52;54;52;46
52;52;44;52
48;47;50;46
47;46;44;47
47;44;44;47
44;44;44;44
46;47;44;44
44;44;44;46
44;46;47;38
46;47;44;46
46;44;48;52
47;46;46;46
52;52;52;52
54;48;55;52
52;54;52;48
54;54;52;60
60;54;62;54
60;64;60;60
68;62;60;64
64;64;68;68
64;68;68;64
68;68;64;68
64;64;70;64
68;68;64;64
64;66;64;68
68;64;68;64
64;68;64;64
68;64;64;64
60;64;68;60
64;66;56;60
64;56;60;60
60;60;60;56
56;60;54;54
60;52;52;54
52;54;58;52
52;54;52;52
52;44;52;52
47;54;52;46
52;50;52;52
50;44;52;46
46;47;47;44
52;46;44;47
46;44;52;46
50;46;44;48
50;44;46;47
47;46;52;46
52;47;48;52
52;46;52;52
52;54;58;52
60;54;54;60
60;56;64;60
60;68;64;60
66;64;64;64
66;64;64;68
64;68;68;64
68;68;64;68
68;64;68;68
66;68;68;64
68;66;68;68
68;64;64;68
64;64;68;64
64;64;56;64
62;60;64;66
62;64;64;60
64;60;60;60
62;60;60;60
60;60;60;52
56;54;52;56
52;52;54;54
52;52;52;48
54;46;52;46
50;48;52;46
46;52;46;46
52;46;46;52
44;44;52;46
46;46;46;46
52;46;52;52
52;52;50;52
54;54;52;54
54;52;55;54
54;54;54;54
60;55;54;56
54;54;60;60
60;60;56;60
60;56;60;64
60;64;64;64
64;68;64;68
68;64;64;68
64;64;68;64
64;70;64;64
68;68;68;68
64;68;68;64
64;66;64;66
68;60;64;64
64;68;68;60
64;64;60;64
60;60;64;60
60;64;56;60
62;56;56;60
60;52;52;55
52;52;54;48
55;52;48;54
52;46;52;46
50;52;47;48
52;46;48;52
47;44;47;46
47;46;46;46
47;44;47;52
44;46;52;47
46;54;44;52
47;46;54;52
48;54;52;52
52;54;52;54
52;52;56;54
52;56;52;52
54;52;52;60
54;60;60;56
62;64;60;60
60;60;60;64
60;64;64;64
68;64;64;68
64;64;68;64
64;68;66;64
68;64;68;68
64;68;68;64
68;68;64;68
64;64;70;64
64;68;64;64
64;60;64;64
64;60;64;60
60;62;60;64
66;60;60;60
56;60;60;52
56;60;54;52
54;52;56;54
52;54;52;52
52;52;48;54
52;47;54;52
46;46;52;46
55;46;46;50
46;44;52;47
52;46;46;46
52;46;46;52
47;44;52;47
48;50;52;52
54;52;52;54
48;52;54;52
54;54;48;54
56;52;60;56
56;58;60;60
62;60;60;68
64;64;64;64
64;70;64;64
70;68;64;70
64;68;68;64
70;70;68;68
68;64;70;68
68;70;68;64
68;64;64;68
68;64;68;64
64;64;60;64
68;60;64;64
60;64;64;60
60;62;56;64
56;52;60;60
56;56;54;54
56;54;54;56
52;52;54;52
52;52;46;52
52;46;50;46
50;52;52;48
54;46;46;52
46;46;47;44
46;46;46;46
46;46;52;47
46;52;46;46
52;44;46;47
47;47;52;46
52;46;52;54
54;52;56;52
52;52;54;52
60;52;52;60
54;54;60;54
56;60;56;60
64;56;60;64
60;64;64;60
64;64;64;64
68;64;66;64
64;64;68;64
64;64;60;68
68;64;68;64
64;64;64;64
68;64;64;68
64;64;64;62
60;68;60;60
64;62;64;62
60;60;62;60
60;60;56;60
60;60;60;60
56;60;62;54
56;60;52;58
58;52;54;52
52;54;54;52
54;52;52;54
52;46;52;50
52;54;46;46
52;46;52;54
52;52;52;46
52;52;46;48
52;47;52;47
46;46;52;46
54;54;52;52
52;52;55;54
52;55;54;54
60;58;60;62
60;60;60;60
60;60;60;60
64;60;64;64
60;64;68;64
68;68;64;64
68;64;68;66
64;70;66;66
68;68;66;68
70;68;68;68
68;70;68;64
70;68;64;68
64;64;68;64
64;68;64;64
64;60;64;64
60;60;66;60
64;64;60;60
63;54;60;58
54;64;54;52
60;54;52;54
52;52;54;52
52;54;52;52
54;52;52;52
52;52;52;44
52;47;46;46
47;44;46;46
46;46;46;44
47;44;44;46
44;44;47;44
46;47;40;46
47;44;47;47
46;52;46;46
52;46;47;52
46;50;52;46
48;52;52;58
55;52;60;54
54;60;60;56
64;60;60;64
60;60;64;62
68;64;60;64
66;64;68;68
64;68;68;64
68;64;64;68
68;64;64;68
64;64;64;64
68;60;64;66
60;64;64;56
64;60;56;60
62;54;60;60
60;60;58;54
60;56;56;60
60;54;60;54
56;54;52;52
54;48;52;50
46;52;47;48
52;46;48;52
44;47;54;46
46;46;44;46
44;44;46;46
46;46;46;44
48;46;44;46
46;44;52;47
46;52;44;46
52;46;52;54
52;52;52;52
54;54;47;52
52;52;58;55
56;54;52;56
60;56;56;60
56;56;60;54
60;60;60;60
62;64;64;66
64;66;68;64
68;64;64;64
66;64;64;64
64;64;64;64
68;64;64;68
68;64;64;66
66;68;68;64
68;66;64;64
64;64;64;64
64;64;64;56
60;60;60;64
60;56;60;56
60;56;54;52
60;54;54;55
52;52;54;52
52;52;46;48
52;48;52;52
47;52;54;46
47;47;44;46
52;46;46;47
46;44;52;44
50;52;46;52
46;44;46;47
46;46;46;46
52;52;48;52
52;46;54;52
52;54;52;52
60;52;52;55
54;52;60;54
56;60;55;60
60;60;60;64
60;64;64;68
64;64;68;60
64;68;64;68
68;64;68;70
68;68;68;68
64;68;68;68
71;70;68;68
68;64;68;64
64;68;64;64
68;64;64;64
64;64;64;60
60;60;60;60
68;54;56;64
60;56;60;54
60;60;54;56
56;52;52;60
52;54;55;52
54;54;52;52
55;52;54;52
52;54;54;47
54;52;46;52
52;46;50;52
47;46;46;44
52;47;44;47
47;40;46;46
44;47;52;44
50;47;44;54
52;44;52;52
52;52;52;52
54;52;52;56
55;52;52;54
52;54;58;54
60;56;54;58
58;54;64;60
60;60;60;60
64;60;60;64
64;60;64;64
60;64;64;64
68;64;60;66
64;64;70;64
68;68;64;64
64;64;68;68
64;64;66;64
64;64;64;64
64;64;60;68
62;64;64;64
64;62;60;64
68;60;60;60
58;54;60;56
54;58;52;52
55;52;50;55
52;52;52;47
52;52;46;52
52;46;52;52
47;52;46;44
46;46;46;52
47;44;52;46
44;46;46;46
52;46;46;47
44;46;52;46
52;52;52;46
52;46;52;52
52;54;52;52
54;54;52;56
56;54;56;52
54;60;58;56
60;60;56;62
60;60;64;60
60;66;56;64
68;60;64;64
64;64;66;64
64;68;68;66
68;68;68;68
64;68;68;64
70;68;64;68
66;64;64;64
64;66;64;64
64;60;60;64
64;60;64;60
60;60;56;60
63;54;56;62
58;60;62;54
60;60;52;60
58;52;54;56
54;60;60;54
54;55;54;52
52;48;52;46
46;54;46;44
52;47;46;52
47;46;47;44
47;47;44;46
52;46;52;46
47;52;46;46
52;54;46;46
52;48;54;52
52;54;52;52
54;52;54;54
52;54;55;54
60;62;54;60
56;60;62;62
60;64;56;64
68;64;64;64
64;64;68;64
64;64;68;64
68;64;68;68
64;64;64;64
70;64;64;64
64;64;68;64
64;68;64;64
64;56;64;63
60;64;62;60
64;60;60;64
62;60;64;60
56;62;56;56
60;55;54;60
54;54;55;54
58;54;54;54
55;48;54;54
52;54;52;46
52;46;46;54
47;46;52;46
48;52;46;47
54;46;50;52
46;48;47;47
52;46;44;52
47;46;52;46
48;52;47;46
52;44;48;52
48;52;52;46
52;55;52;52
54;52;52;52
52;54;58;54
60;60;54;60
60;56;64;60
60;64;58;60
64;60;64;66
64;64;64;64
64;68;64;64
68;64;66;68
64;64;68;64
64;68;64;68
68;64;68;64
64;64;64;60
68;64;60;64
64;60;64;62
60;64;62;60
64;60;56;64
60;60;62;60
60;64;56;56
56;52;54;54
52;52;52;52
52;54;52;52
54;46;52;52
52;52;54;52
54;46;46;52
47;50;52;47
47;52;46;46
50;46;48;52
50;50;52;46
46;52;52;50
56;52;46;55
52;52;56;52
54;52;52;52
52;48;52;55
52;54;55;54
56;54;56;60
56;54;60;56
60;60;56;64
63;60;64;62
60;68;66;64
68;64;64;68
64;64;68;64
66;68;64;64
64;64;64;68
68;64;64;64
64;64;64;64
68;64;64;64
64;64;68;60
64;64;60;64
64;54;60;60
54;60;62;60
62;60;54;60
60;52;60;54
52;54;52;52
56;54;52;56
54;52;54;46
50;52;46;44
52;46;46;52
47;46;46;47
44;46;44;46
47;44;46;46
44;47;52;44
52;47;46;46
44;46;54;52
52;54;46;52
54;52;52;54
52;52;54;52
60;54;54;60
60;54;60;54
56;56;54;60
62;60;60;64
60;64;66;64
68;68;64;68
68;64;68;68
66;68;64;64
68;64;68;68
64;64;68;64
64;64;64;64
68;64;68;64
64;64;64;60
68;63;64;64
64;60;64;60
60;64;54;60
60;54;60;62
58;60;54;54
56;60;54;54
56;52;52;52
48;54;52;46
55;52;46;52
47;46;52;44
46;46;44;46
47;44;46;46
44;47;44;44
47;44;44;47
44;46;46;44
46;47;44;46
47;44;46;46
46;52;46;52
55;48;48;52
52;52;52;52
54;54;52;58
52;52;60;56
54;60;54;60
62;58;64;62
60;64;60;64
68;64;64;64
64;64;68;64
64;64;64;64
70;64;64;68
64;64;68;64
68;64;64;68
64;64;64;66
64;68;66;64
68;64;60;68
64;68;64;60
64;68;58;64
60;60;64;62
60;64;60;54
60;54;60;56
54;54;54;52
54;54;50;52
50;52;52;52
52;52;52;52
52;48;52;47
52;52;46;46
52;46;46;46
47;52;47;44
52;46;44;47
46;46;46;46
46;52;44;52
54;46;52;52
47;52;48;52
56;48;48;52
48;52;54;52
54;52;52;52
54;54;60;56
60;60;60;60
64;60;64;64
60;68;64;64
64;64;64;66
64;64;68;64
64;68;64;64
70;64;64;68
64;64;68;64
68;70;64;68
68;64;68;64
64;66;60;64
68;64;64;66
64;64;64;60
64;62;60;66
56;60;64;60
56;60;56;56
60;54;54;54
52;54;54;52
55;54;52;54
52;52;52;52
52;48;46;52
52;46;52;47
46;52;47;44
54;52;52;47
47;46;52;46
48;52;48;46
52;52;52;47
46;52;52;48
54;52;52;54
52;52;54;52
52;54;52;54
56;56;56;60
56;60;60;56
60;60;56;58
64;60;68;60
64;64;62;60
68;60;64;68
64;64;68;64
64;66;64;64
68;64;68;68
64;68;68;64
68;68;64;68
64;64;68;64
64;68;64;64
68;64;64;64
60;60;64;56
62;54;56;60
60;56;60;56
60;60;54;54
60;55;52;58
54;52;60;55
52;54;54;52
60;46;52;52
52;52;52;46
52;52;44;46
46;44;46;46
44;46;46;44
46;46;44;46
46;44;46;44
44;52;44;46
52;46;47;52
47;46;52;48
52;52;46;52
52;52;54;54
54;60;52;52
56;52;52;60
52;56;58;54
60;60;54;60
60;56;64;60
64;68;64;64
68;64;64;68
64;64;68;64
64;64;64;64
66;64;64;68
64;66;68;64
64;64;64;68
64;64;68;64
64;64;56;64
64;56;64;60
56;60;60;56
62;60;56;60
58;54;60;60
54;56;52;52
60;52;52;54
52;52;54;52
54;54;46;54
52;46;52;54
46;52;52;46
52;50;48;52
46;48;52;44
48;47;44;46
46;44;46;47
44;48;46;44
52;46;44;52
50;46;52;50
48;52;48;48
54;47;52;54
48;54;54;52
56;54;52;56
60;56;62;54
60;60;60;64
62;60;64;64
64;64;64;64
68;64;64;68
64;64;68;64
64;64;64;64
68;64;64;68
64;64;68;64
68;68;64;64
64;64;68;64
64;68;62;64
64;64;60;64
60;60;60;58
64;64;54;60
60;54;60;54
52;56;54;54
60;52;48;54
52;52;52;50
52;47;46;52
52;46;52;44
50;50;44;48
46;44;47;46
46;47;44;46
52;44;44;46
44;52;46;44
52;44;44;46
44;46;46;44
52;47;46;46
52;44;52;47
46;52;46;52
55;52;52;52
52;54;54;52
56;54;54;56
54;54;56;54
60;60;58;64
64;60;64;64
64;68;64;64
68;64;64;68
64;66;70;68
68;68;64;70
70;66;68;70
68;68;68;64
70;70;64;68
64;64;68;60
64;64;60;64
64;60;64;64
60;64;56;60
68;64;56;64
56;54;60;54
56;60;54;54
56;54;52;54
52;54;54;50
52;54;52;54
54;52;52;54
52;52;52;46
52;52;46;54
52;46;52;46
52;52;52;48
54;46;52;52
47;52;54;52
52;52;46;52
52;52;52;54
48;54;52;50
54;52;52;54
55;52;54;54
52;54;54;58
61;54;56;60
56;60;62;60
64;60;60;64
64;64;68;64
64;68;64;64
68;64;64;68
64;64;68;64
64;68;64;64
68;64;68;64
66;68;68;64
68;64;64;64
60;64;68;62
68;66;60;64
64;64;64;60
62;68;60;60
60;56;56;60
54;56;60;52
56;58;52;54
52;52;58;52
52;54;52;52
55;52;48;54
48;52;52;46
48;46;46;46
52;46;52;47
46;48;44;46
50;44;44;47
44;44;47;44
46;47;44;52
46;46;48;46
46;48;46;46
52;46;46;52
50;52;52;48
54;52;52;55
54;54;60;54
58;60;54;56
64;60;64;60
60;64;64;56
64;64;64;64
64;64;68;64
68;68;64;68
68;68;64;68
64;64;64;64
68;64;64;68
64;64;68;64
64;64;60;64
64;60;64;64
60;60;60;56
62;62;58;62
62;60;64;60
58;56;56;54
60;54;52;58
54;60;55;52
52;60;52;52
52;52;52;47
52;52;46;46
54;52;52;52
52;52;52;46
48;52;46;48
47;46;47;44
46;52;48;46
52;44;46;52
44;52;52;46
54;52;46;54
52;52;54;52
54;56;52;52
60;52;56;60
56;60;60;54
62;62;60;64
62;64;64;60
64;68;64;64
68;64;64;64
64;64;64;64
68;64;64;68
66;64;70;64
68;70;68;68
68;64;68;64
64;68;64;64
68;64;68;64
64;64;64;56
64;60;64;64
60;60;62;56
60;64;60;64
56;56;60;56
56;60;54;54
56;54;54;54
52;54;52;52
55;47;52;52
48;52;50;44
52;46;46;52
46;47;52;46
47;46;44;46
47;44;46;44
44;47;44;44
46;44;44;46
44;52;47;44
52;52;46;52
48;48;54;46
52;55;52;54
54;54;56;54
56;60;52;54
60;54;60;60
56;64;60;64
66;60;56;64
64;64;64;64
64;64;64;64
68;64;64;64
64;64;64;64
68;66;64;68
66;68;68;68
66;68;66;64
68;64;66;64
64;64;64;64
64;56;64;64
60;64;60;60
62;60;60;60
60;60;60;54
60;60;54;60
54;52;54;52
52;56;46;50
52;46;48;52
46;52;46;46
52;46;46;47
46;46;52;46
46;46;44;52
46;46;46;44
46;50;44;46
47;44;46;46
47;48;46;46
52;48;48;52
47;46;52;50
52;52;46;52
52;52;52;52
54;60;52;54
60;56;60;60
60;60;60;56
64;56;60;62
60;64;68;60
64;64;60;64
64;64;68;64
68;68;64;64
70;64;64;68
68;68;70;64
68;64;64;68
68;64;66;64
64;68;64;64
68;64;64;64
60;60;64;60
60;64;56;60
60;60;60;56
56;60;52;52
56;46;52;54
52;52;54;52
55;48;52;52
52;48;52;47
52;52;46;52
52;46;52;46
46;52;46;46
52;46;46;47
46;46;44;44
52;46;46;46
47;44;47;44
46;47;47;52
54;46;52;52
52;54;52;52
56;54;54;58
54;60;56;52
60;54;54;60
60;62;66;60
64;64;60;64
68;64;68;64
64;68;64;66
70;64;68;68
64;68;64;64
68;68;64;68
68;64;68;64
64;68;64;64
68;64;68;66
64;66;64;64
68;60;64;66
64;64;64;54
60;60;56;64
62;56;64;54
60;60;52;54
56;54;58;54
52;54;52;52
55;52;52;54
52;48;52;46
46;52;44;52
52;50;52;47
46;48;44;46
47;44;44;47
46;44;46;44
46;44;44;46
47;44;50;47
44;52;46;46
52;48;46;52
46;52;47;46
52;46;46;52
47;54;52;52
54;54;54;52
60;54;58;60
60;60;64;56
64;60;56;62
60;56;66;62
64;68;64;64
66;64;64;64
64;64;64;60
66;68;64;64
64;64;68;64
64;64;68;60
68;64;60;64
64;64;66;64
68;68;60;64
64;64;68;64
60;64;60;56
64;60;60;60
56;54;60;52
60;58;52;56
54;54;54;48
52;54;46;50
55;48;48;52
46;52;52;44
52;46;46;52
44;46;52;44
46;46;44;50
47;46;46;44
46;52;46;46
50;46;52;52
46;48;47;46
52;52;52;54
52;52;55;54
52;60;54;56
60;54;56;60
56;60;60;60
64;60;64;64
64;64;68;64
68;64;64;68
68;64;68;64
64;68;64;64
68;64;68;68
64;68;64;64
68;64;64;64
64;64;64;60
68;68;64;70
64;64;68;60
64;66;64;64
64;60;64;56
60;64;60;60
64;60;60;60
54;58;56;54
60;54;52;54
52;54;60;52
58;58;52;54
55;46;56;54
52;55;52;48
54;52;52;52
46;52;52;46
55;52;52;52
52;52;52;52
52;54;46;52
54;46;52;52
52;58;54;52
56;52;54;60
56;54;60;54
60;60;54;60
60;52;60;60
60;64;60;64
64;60;64;68
60;64;64;64
68;64;64;68
68;64;68;64
64;68;64;64
68;64;64;68
64;64;64;64
68;68;64;68
64;64;68;64
64;64;64;64
64;60;64;66
60;64;66;62
64;66;64;68
64;60;64;60
64;60;60;60
60;54;56;60
60;54;58;52
60;56;52;54
52;52;54;52
46;52;46;46
52;46;46;52
46;52;52;44
46;46;46;52
47;44;50;46
46;48;46;44
47;44;46;46
44;47;46;44
47;52;44;52
47;48;52;52
48;52;52;52
58;46;52;56
52;56;56;52
60;56;54;60
60;54;60;60
60;64;60;64
62;56;64;64
60;64;64;64
66;64;64;68
64;64;68;64
64;64;64;64
66;64;68;64
64;68;64;64
68;64;64;64
64;64;66;60
68;70;64;60
62;60;64;62
60;64;60;60
62;54;60;60
56;60;60;52
60;56;52;58
54;54;56;52
52;54;48;47
52;46;52;52
46;48;47;46
52;47;46;52
44;46;47;44
48;47;46;47
47;44;47;46
44;46;46;46
47;44;46;47
44;44;46;44
47;52;46;52
50;46;52;52
52;54;52;52
54;52;52;60
52;54;54;52
56;60;60;62
60;60;64;60
64;64;64;64
68;64;64;64
64;64;64;60
68;64;64;68
66;68;70;66
68;68;64;68
68;64;68;66
70;68;64;64
68;64;64;64
64;64;64;60
64;60;60;64
62;56;64;60
60;60;60;56
60;56;56;60
54;56;60;52
56;56;52;54
54;52;55;52
52;52;46;48
55;48;52;52
46;52;52;44
52;52;47;52
47;44;46;46
46;52;44;46
47;44;46;47
44;52;47;46
48;46;46;50
52;46;54;47
47;54;46;52
54;52;52;52
48;52;54;52
54;60;54;60
56;56;60;54
56;60;60;60
64;60;64;64
60;64;64;64
68;64;64;64
68;64;68;64
64;64;64;64
68;64;68;66
64;68;68;64
70;68;68;68
68;68;70;66
68;68;60;64
68;64;64;68
64;68;64;60
64;60;60;64
60;60;64;62
60;64;56;56
60;60;60;60
52;60;54;52
56;52;52;54
52;52;52;46
52;52;46;50
48;46;52;47
52;54;46;46
52;44;48;47
47;54;47;44
52;44;44;52
46;46;52;44
50;48;46;52
54;48;52;52
52;52;52;52
58;52;54;56
54;56;52;52
60;55;56;60
54;56;60;56
60;60;56;60
58;56;62;54
60;60;64;64
64;64;64;64
64;68;64;64
68;64;64;68
64;64;68;64
64;68;64;68
68;64;66;64
64;68;64;64
68;64;64;64
60;64;64;60
68;64;64;64
60;64;60;60
64;60;54;60
60;56;60;55
60;60;52;54
56;52;54;52
52;52;52;46
52;48;46;52
47;48;52;47
46;46;46;46
52;44;46;46
46;52;52;47
52;44;44;47
46;44;47;44
50;52;46;52
47;46;52;52
52;54;52;52
54;52;52;56
54;54;60;54
60;60;56;60
60;56;60;60
60;64;60;64
68;60;64;64
64;64;68;64
68;68;68;70
64;64;70;68
68;70;64;64
70;64;64;68
64;64;68;64
64;64;64;64
64;64;68;60
64;60;56;64
64;60;64;60
56;64;60;56
64;62;60;62
60;64;62;54
60;60;52;56
58;52;54;54
52;52;52;52
54;48;52;52
50;50;55;52
52;54;52;52
54;46;54;47
47;52;47;44
52;47;44;52
47;46;52;46
46;52;52;46
52;47;52;52
52;52;54;52
54;54;52;52
56;48;52;52
52;60;54;52
60;60;56;60
60;56;60;60
60;64;64;60
64;60;60;64
64;64;66;64
60;68;66;64
68;64;64;64
64;64;68;64
68;68;68;64
68;64;64;68
64;64;68;60
64;68;64;64
68;64;64;64
64;64;64;60
64;64;60;64
64;60;64;60
60;64;60;60
60;62;58;60
60;56;60;54
54;60;54;52
56;54;54;60
52;54;54;54
52;55;48;52
54;47;46;47
47;52;50;46
46;44;44;46
50;46;46;47
44;46;47;44
50;46;44;52
52;46;52;52
52;54;52;52
56;52;52;54
55;52;54;54
52;62;54;54
60;56;60;60
60;56;60;60
60;64;60;60
64;60;64;64
64;64;68;64
68;68;64;68
64;64;70;66
66;66;64;64
68;64;64;66
64;68;64;64
68;64;64;64
64;64;64;60
64;64;60;64
62;60;64;60
60;60;60;56
60;60;54;62
60;56;60;54
54;60;54;56
56;54;54;54
47;52;54;52
54;54;52;52
52;48;52;52
52;54;47;46
52;44;48;47
46;48;47;44
48;47;46;46
52;47;52;44
46;46;47;48
52;46;52;52
50;52;54;52
60;55;52;60
56;52;60;54
54;60;60;56
60;54;56;60
60;60;62;60
66;60;64;64
64;64;68;60
64;64;64;64
66;64;64;68
68;70;64;64
70;68;68;68
64;68;64;64
68;68;64;68
68;64;68;64
64;68;64;68
66;64;64;60
64;64;60;64
64;60;60;60
60;66;62;56
64;60;60;60
60;60;60;54
58;56;52;54
54;52;56;47
52;52;46;52
54;46;52;52
48;52;52;46
52;52;46;47
46;46;52;44
52;54;46;52
52;44;52;46
46;52;47;50
52;46;52;54
46;54;52;52
55;55;52;56
52;52;60;54
52;54;52;52
60;52;56;60
56;56;60;56
64;60;60;60
62;64;64;60
64;68;64;64
66;60;64;64
64;68;66;64
68;64;64;68
68;64;68;60
64;68;64;68
70;64;68;66
64;64;64;64
68;64;64;66
64;60;64;60
64;64;60;64
62;60;64;60
60;68;60;60
66;60;60;60
60;64;54;52
54;52;52;56
52;52;54;48
52;52;46;52
52;48;52;46
46;52;46;46
52;46;47;46
46;50;47;44
52;46;46;47
46;46;46;44
47;47;44;47
47;44;52;52
50;54;52;48
54;52;52;54
52;54;60;52
60;60;52;60
60;56;60;56
60;60;60;64
64;60;64;64
64;64;66;64
64;64;64;68
68;64;68;64
64;68;64;64
68;64;68;68
64;68;70;66
68;64;64;68
66;64;68;64
64;64;60;64
70;64;64;64
64;64;64;60
64;60;60;64
60;60;60;60
60;64;60;54
62;54;54;60
56;56;54;52
54;54;52;54
55;52;54;52
52;52;52;46
55;52;52;52
52;46;52;46
55;52;46;52
52;46;52;47
48;52;44;47
52;46;48;52
48;52;52;46
52;52;46;52
52;52;54;46
54;54;52;54
54;56;60;54
54;56;54;56
63;56;56;62
60;60;64;60
64;68;64;64
68;64;68;68
68;70;68;64
70;68;64;68
68;68;70;68
68;70;68;64
73;64;68;68
64;68;68;64
64;68;64;68
68;64;64;68
64;68;60;60
68;60;64;60
60;64;64;56
60;64;54;60
60;52;56;54
52;56;54;54
54;52;48;52
52;47;48;46
46;52;47;46
46;44;46;47
47;52;47;44
44;52;46;46
52;46;46;52
46;46;47;44
47;46;46;52
47;46;47;50
52;52;52;48
52;52;54;54
52;56;60;52
56;56;54;60
60;54;60;54
56;60;56;60
64;56;60;60
60;60;64;60
68;60;60;64
64;64;64;64
66;66;64;68
68;64;64;68
68;64;70;64
68;68;64;70
68;64;68;64
64;68;64;64
70;64;64;64
60;64;64;60
64;62;60;64
60;60;62;60
60;64;56;60
60;56;54;58
56;60;54;54
60;55;54;56
52;52;54;46
52;52;44;48
52;47;52;47
46;50;44;46
52;44;46;47
46;52;52;46
52;52;52;52
52;52;52;50
50;52;46;46
52;46;48;52
52;56;54;52
58;54;52;60
52;54;58;52
54;60;54;56
60;60;60;60
56;64;60;60
64;64;64;66
64;64;68;60
64;68;64;68
68;64;68;68
64;70;68;64
68;68;68;68
66;68;71;64
66;70;64;68
71;68;68;64
64;68;64;64
68;60;64;68
64;64;64;60
64;64;60;64
62;64;64;62
60;64;60;56
62;60;54;60
52;54;54;52
54;54;52;54
55;52;55;52
52;54;52;52
55;46;46;52
46;48;47;46
54;47;46;47
46;46;46;46
46;52;46;44
52;46;48;52
47;52;50;46
54;54;50;54
52;48;52;52
52;52;52;52
56;52;52;52
52;56;60;52
60;62;60;60
60;56;64;62
64;68;64;64
68;64;64;68
68;64;68;64
68;70;64;68
71;68;68;70
68;70;68;64
70;68;68;68
64;64;68;64
68;68;64;66
68;64;66;64
64;70;60;64
68;64;64;64
60;64;68;60
64;62;56;64
64;60;60;55
56;60;54;52
60;54;54;54
52;52;52;46
54;52;46;52
52;48;52;52
52;52;47;46
52;52;48;52
46;52;54;46
52;46;44;52
52;46;52;47
46;52;47;46
54;46;48;52
50;52;52;48
54;54;52;54
55;52;60;56
58;62;54;56
62;60;60;64
60;64;66;60
64;66;64;64
68;64;64;68
64;68;68;64
68;68;68;68
68;64;68;64
68;71;68;64
71;64;64;68
66;68;68;64
68;68;64;68
64;64;64;64
64;68;60;60
64;64;64;64
60;60;60;60
64;62;56;60
60;56;60;54
56;60;54;52
55;52;54;54
54;56;54;52
54;52;52;54
52;52;54;52
52;54;52;52
50;48;55;46
52;47;44;46
50;46;52;46
46;52;52;46
52;46;48;52
47;52;52;48
54;52;48;52
52;52;54;50
56;54;52;54
55;54;55;54
56;62;56;60
60;60;64;62
60;64;60;64
64;64;66;64
64;68;68;64
68;68;64;68
68;64;68;64
68;70;64;64
68;68;68;68
64;68;68;64
68;68;64;70
68;64;68;64
64;68;64;64
68;64;64;64
60;60;66;60
64;64;60;64
62;60;62;54
56;60;54;54
62;54;54;56
52;52;55;52
54;54;52;52
54;48;54;46
52;55;48;52
54;52;52;52
54;54;54;52
55;52;48;52
46;52;52;46
52;52;50;52
54;54;60;52
52;60;54;54
60;54;52;58
54;56;54;52
58;60;56;60
61;56;60;56
60;64;60;64
60;60;64;62
60;64;68;64
64;66;64;68
64;68;68;64
64;68;66;68
68;64;64;68
64;64;68;64
68;68;64;68
64;66;70;64
64;68;64;68
68;64;64;64
64;68;64;64
64;64;64;64
64;60;66;60
64;64;58;60
60;54;56;56
54;56;52;52
58;52;52;56
48;52;54;46
54;47;48;52
47;50;52;52
52;58;47;52
54;52;52;52
52;52;46;46
54;47;48;52
46;52;52;46
52;52;46;54
54;52;54;52
52;54;54;54
60;52;56;56
52;54;54;54
60;54;54;60
56;60;64;60
64;64;64;64
64;64;64;60
64;68;64;68
66;64;68;68
64;68;68;64
66;64;64;68
66;68;64;64
68;64;64;68
66;64;68;64
64;64;64;64
68;64;68;64
64;64;60;64
66;64;60;64
60;60;62;56
64;60;56;62
58;56;60;54
56;60;54;54
55;52;54;54
54;52;52;52
52;46;50;54
52;54;52;46
52;46;46;52
46;46;47;44
44;46;46;46
47;46;47;46
46;46;44;46
52;46;46;54
46;48;47;46
54;52;46;54
52;52;56;52
54;54;48;54
55;52;54;54
56;60;60;56
62;60;60;64
62;64;64;60
64;66;64;68
68;64;68;64
64;70;64;64
71;64;68;70
68;68;68;64
70;64;64;68
64;64;68;64
64;68;64;64
66;64;66;68
64;64;64;64
64;60;64;64
62;60;64;60
60;64;60;60
62;60;60;56
56;56;54;52
56;56;54;60
54;56;60;54
55;60;52;54
54;48;54;52
54;52;52;48
52;52;48;52
50;46;52;46
47;52;47;46
52;46;52;52
48;46;52;46
54;52;46;52
52;52;54;52
52;52;52;52
52;54;56;54
52;60;60;54
60;56;58;60
60;60;64;60
60;64;64;64
68;60;64;68
64;64;66;64
64;68;64;68
64;64;68;64
64;70;64;64
68;68;64;68
64;68;64;64
68;64;64;64
66;64;68;62
60;64;60;64
68;62;60;62
64;60;64;56
60;60;60;60
60;54;60;60
54;60;60;54
56;52;52;54
54;52;54;52
52;54;52;52
52;52;52;52
50;54;47;52
54;46;48;52
47;47;52;46
52;52;46;52
52;46;52;48
50;52;46;46
54;48;52;54
52;52;52;52
54;52;54;58
52;52;60;54
56;60;54;56
62;56;60;62
56;60;60;60
66;64;64;68
64;64;68;64
68;70;64;68
68;64;68;68
64;70;64;64
68;64;68;70
68;68;70;68
68;70;68;68
71;68;70;70
66;68;68;64
68;64;64;68
60;64;68;64
64;66;64;64
64;60;64;60
60;60;60;56
60;58;56;60
56;54;60;52
54;54;52;54
58;52;54;54
52;54;52;48
54;54;52;54
54;52;54;52
52;54;52;48
52;52;52;54
50;52;54;46
48;54;50;52
54;46;52;54
52;54;56;52
60;60;52;54
52;54;60;54
56;60;52;60
60;56;60;60
60;64;60;64
62;60;64;68
60;64;68;64
64;68;64;64
66;64;68;66
64;68;68;64
70;64;68;71
64;70;71;64
68;68;64;68
64;64;68;64
64;68;64;64
64;64;68;66
64;68;62;64
68;66;60;64
64;64;64;60
60;64;58;60
63;58;60;60
56;60;60;56
60;52;52;58
52;52;56;52
52;62;48;52
54;52;54;54
52;54;47;46
52;46;46;47
46;46;52;46
52;52;46;48
54;46;46;47
47;52;52;52
52;52;54;54
52;52;54;47
54;60;52;54
56;52;54;54
56;60;58;56
62;60;60;64
64;60;60;60
64;64;66;68
68;64;64;64
64;64;68;64
68;68;64;68
64;68;68;64
68;68;64;68
68;64;68;68
64;68;64;64
68;64;64;70
66;64;68;64
64;68;64;64
64;64;64;64
64;66;60;60
64;60;62;60
60;64;56;54
60;54;58;54
52;54;52;52
56;46;52;54
46;52;52;47
52;52;46;52
52;46;48;47
46;52;47;46
52;47;52;50
46;47;47;46
52;50;52;54
52;46;52;52
52;54;46;52
55;48;52;52
52;55;52;52
60;52;54;54
52;56;54;52
60;54;54;62
56;60;60;60
64;64;60;64
60;64;64;64
64;70;66;64
68;66;64;68
64;68;66;64
68;66;68;68
64;68;70;64
68;68;64;68
68;64;70;64
68;68;64;68
68;64;68;64
64;64;64;64
66;60;64;64
60;64;62;64
66;56;64;60
60;60;56;54
62;56;56;62
54;54;54;52
56;56;46;52
52;52;52;46
52;52;47;52
52;47;52;46
48;52;44;47
47;44;46;47
44;50;47;44
52;46;47;47
44;46;52;46
52;54;52;52
52;52;54;52
54;60;52;52
55;52;52;54
52;54;54;54
60;60;60;64
60;60;64;60
64;68;64;64
68;64;68;68
64;70;64;66
68;66;68;68
68;68;68;64
70;68;64;70
68;64;70;64
64;70;68;68
68;64;70;68
64;64;64;64
66;64;60;66
62;64;66;60
64;68;60;64
62;64;64;62
60;64;60;56
60;56;54;60
60;56;60;54
54;54;52;52
54;52;52;54
52;52;52;47
54;52;52;54
52;52;54;52
52;55;47;52
52;46;54;52
52;54;52;52
52;52;52;54
50;52;55;52
56;54;54;60
54;54;56;52
54;60;54;54
55;54;60;58
54;64;60;56
64;56;60;60
62;64;68;64
64;68;64;64
66;64;68;64
68;68;64;68
68;64;68;64
64;68;64;64
68;64;64;68
64;64;68;64
68;64;64;70
64;64;68;68
64;68;64;66
64;60;64;60
60;64;64;60
63;54;60;58
56;60;58;54
60;56;52;60
58;60;60;52
56;55;52;52
52;52;54;52
52;52;50;52
52;48;52;55
52;54;52;46
54;54;48;54
48;52;54;47
52;54;46;52
52;54;56;52
52;54;52;54
54;52;54;54
52;58;52;52
58;54;54;60
52;60;60;54
62;56;60;60
56;60;60;60
66;60;60;64
60;64;64;64
64;64;64;64
64;64;68;64
68;70;64;68
66;64;68;64
68;71;64;70
68;68;70;68
68;70;64;70
66;68;68;68
68;70;64;64
64;60;68;64
64;64;62;62
60;60;64;64
58;64;62;60
60;60;56;60
56;54;60;52
54;56;52;52
55;46;52;52
46;52;52;46
55;52;46;50
46;52;54;46
52;52;48;52
46;52;52;46
55;52;46;52
47;52;54;46
52;54;52;52
52;52;60;54
54;60;54;56
60;54;60;54
58;60;60;58
64;54;60;60
60;60;60;60
64;60;64;64
60;64;68;64
64;64;64;64
64;64;68;64
68;66;64;68
70;64;68;64
64;68;64;66
68;68;68;64
64;70;68;68
70;64;70;68
64;70;68;66
70;66;68;68
64;68;64;64
68;60;64;60
60;64;64;60
62;60;56;62
60;56;62;56
60;56;52;58
56;52;56;52
52;55;50;48
54;48;52;52
48;52;46;50
54;46;52;54
50;54;52;52
54;47;52;52
46;52;55;52
54;54;54;54
52;54;55;52
56;60;54;55
56;52;58;54
56;56;52;60
58;52;60;58
56;60;56;60
63;60;64;60
60;64;62;64
68;64;64;68
64;64;64;64
68;64;64;71
64;66;70;64
71;68;64;70
68;68;68;64
70;64;64;70
64;64;68;64
68;68;64;68
64;64;70;64
64;64;64;64
62;60;68;64
62;68;60;60
62;60;64;62
60;62;60;56
60;54;56;56
52;52;54;52
55;52;52;54
52;52;52;44
54;52;46;54
52;52;54;52
52;54;48;54
54;52;54;52
46;52;47;52
54;47;52;52
52;54;52;52
60;52;54;54
52;56;54;54
61;60;60;60
54;60;60;60
64;60;56;64
60;64;64;60
64;64;64;68
64;64;70;64
68;68;64;68
64;64;68;68
68;70;68;68
68;68;70;68
68;68;68;68
68;66;68;70
64;68;68;64
68;64;64;66
64;66;68;64
64;64;60;64
64;60;64;64
60;64;60;60
62;56;60;60
56;58;56;56
62;52;54;60
52;54;52;52
60;52;52;54
52;52;52;46
55;52;52;54
52;52;54;46
52;52;44;52
48;46;52;47
52;54;46;52
52;52;54;46
48;54;47;50
58;52;56;56
52;54;52;52
60;54;54;60
54;56;60;52
60;60;60;60
58;60;64;60
62;68;64;68
68;64;64;64
64;70;64;68
68;64;68;68
64;68;68;64
68;64;64;68
64;64;68;64
68;70;64;68
64;64;68;64
64;68;64;64
68;64;64;64
64;64;60;56
64;60;64;64
60;60;62;60
64;64;56;63
60;56;60;56
60;60;54;60
60;52;56;52
56;56;52;52
60;52;54;54
52;52;52;52
54;52;52;52
48;54;52;48
54;47;46;52
46;46;52;46
53;52;46;52
47;52;54;46
52;54;46;52
52;52;56;52
52;58;52;54
54;52;54;54
54;60;54;56
60;54;60;60
62;66;60;60
64;60;64;64
62;68;64;64
68;68;64;68
64;64;64;64
68;68;64;70
64;68;70;64
64;68;64;68
71;68;72;68
68;68;64;64
70;64;64;64
60;64;64;60
66;62;64;68
64;60;64;60
64;68;60;60
64;60;60;60
56;60;60;52
60;54;54;54
54;56;58;52
52;55;52;54
52;52;52;46
48;54;52;52
52;46;52;52
46;54;52;46
52;47;46;52
46;52;52;46
54;52;52;54
54;52;58;52
54;60;52;60
58;52;60;54
54;60;54;56
60;60;60;60
60;60;62;60
64;60;60;64
64;64;64;60
64;68;64;68
69;64;68;70
64;68;68;64
68;68;68;70
68;64;70;66
68;70;64;68
68;64;68;64
68;68;68;64
68;64;64;68
64;64;68;60
64;64;64;68
64;60;64;64
64;64;64;64
64;60;60;60
60;60;62;60
60;58;54;60
60;60;60;54
54;56;54;54
58;52;52;54
48;54;54;46
54;54;52;52
52;48;52;47
44;52;47;46
52;52;52;52
46;52;52;52
54;52;52;54
54;52;54;50
54;60;52;54
56;52;56;56
52;60;60;56
60;60;56;62
60;64;62;60
64;64;60;64
66;64;64;68
64;68;64;64
68;64;64;68
68;64;70;64
68;70;64;64
68;68;70;70
68;70;66;64
68;64;68;71
68;68;68;64
68;64;68;68
64;64;68;64
64;64;64;64
62;64;66;64
60;62;58;60
64;58;60;64
58;60;58;52
58;54;54;58
54;54;55;52
55;52;48;54
52;48;52;52
54;54;46;54
52;48;54;47
52;52;46;46
52;44;47;47
47;52;46;52
52;46;54;52
52;54;52;48
56;48;54;54
52;54;54;52
54;60;52;60
57;52;62;60
60;60;56;64
64;56;64;60
60;64;60;64
68;64;64;68
64;64;70;68
66;68;64;64
68;64;64;68
64;68;64;64
68;64;64;68
64;64;68;64
68;70;64;68
66;64;66;66
64;64;64;64
66;60;64;64
60;64;64;64
68;62;60;62
60;56;64;56
56;60;54;54
60;52;54;56
52;54;52;48
54;48;48;54
46;48;52;46
52;52;46;52
47;46;52;46
46;52;46;48
52;44;47;47
46;47;44;46
54;47;46;46
46;46;47;46
52;52;46;52
48;48;52;52
54;54;52;54
54;52;56;52
54;60;56;60
62;56;60;62
60;68;64;60
64;60;64;68
66;64;68;64
64;66;64;70
68;64;64;68
64;70;68;66
70;64;68;70
68;68;68;64
68;68;64;64
66;64;68;64
64;66;60;64
60;64;64;60
64;64;54;60
60;56;64;56
60;62;56;60
60;56;58;60
56;60;54;52
56;48;52;54
52;52;54;48
55;52;46;54
50;52;52;47
52;48;46;54
46;46;50;46
48;46;46;52
46;46;46;46
50;47;44;54
47;52;50;46
52;52;52;52
52;48;54;52
52;54;52;52
54;52;56;54
54;60;54;56
60;52;60;56
54;60;56;60
64;62;68;64
64;68;64;64
68;64;68;70
64;68;68;68
68;64;64;70
64;64;68;64
70;64;64;70
64;64;68;64
68;64;64;70
64;64;66;64
68;64;60;68
64;64;64;60
64;64;56;64
60;56;62;60
60;60;54;60
58;54;60;54
58;60;52;54
54;48;52;52
52;55;48;52
54;46;54;52
52;54;52;52
52;52;52;52
46;52;47;48
52;46;46;47
46;50;46;46
52;46;46;52
46;52;54;48
54;47;48;52
52;52;52;52
54;54;52;52
52;52;60;52
54;56;54;62
60;58;60;60
60;64;64;64
64;64;64;64
64;68;64;64
68;64;64;68
64;64;68;64
70;68;68;71
68;64;68;64
68;68;64;68
68;64;70;64
64;70;64;64
68;64;68;64
60;64;62;64
64;56;64;62
64;62;60;56
62;56;60;60
54;60;60;54
56;54;52;55
52;54;54;52
54;54;52;54
52;46;52;48
52;52;52;54
54;52;52;46
52;52;46;54
52;52;52;47
47;48;46;52
54;46;52;54
50;54;52;54
60;54;54;54
54;60;54;52
60;56;56;62
52;60;60;56
62;60;56;64
56;60;64;60
64;64;60;64
64;64;68;64
64;68;64;64
68;64;64;68
64;64;68;64
68;64;64;68
64;68;64;64
68;68;64;68
66;64;68;64
64;64;64;68
64;64;64;64
60;68;64;64
64;64;64;64
60;64;60;60
66;60;56;60
52;60;54;52
56;54;54;55
52;54;54;52
52;48;48;54
47;52;54;46
52;47;46;52
46;46;52;46
52;52;48;52
47;46;52;46
52;54;48;54
52;52;54;52
52;54;52;54
54;52;56;54
52;60;52;60
56;52;56;60
54;60;52;56
56;52;60;58
58;60;56;60
62;56;64;62
64;68;64;64
68;64;64;68
64;68;68;64
68;66;68;70
68;68;68;64
66;68;68;68
68;68;68;64
66;74;64;68
68;68;70;64
68;68;66;66
68;64;68;68
64;68;64;64
68;68;64;64
60;64;62;60
64;64;60;60
60;56;60;56
56;60;54;56
58;54;60;60
52;58;54;54
58;52;52;54
52;54;52;54
54;46;46;52
52;52;52;46
50;47;48;55
47;52;52;44
52;47;46;52
52;52;54;52
52;60;54;60
54;54;62;54
56;54;54;60
55;56;60;54
56;60;56;60
60;60;64;60
64;66;64;66
66;64;70;64
64;68;64;68
68;64;70;64
64;70;64;68
68;68;68;68
64;68;64;64
68;68;64;68
64;68;64;64
68;60;64;64
60;64;62;64
64;60;64;64
60;64;64;56
60;60;56;60
54;60;60;52
58;60;52;62
58;52;56;52
55;54;52;52
50;48;54;47
50;52;46;52
52;46;52;47
52;52;44;52
52;44;48;46
46;52;46;46
47;44;46;46
44;47;47;46
47;46;44;52
46;46;54;50
52;52;48;60
56;52;54;55
52;54;52;56
60;56;60;60
60;64;60;62
68;66;68;70
64;64;70;64
68;68;64;68
68;68;70;68
68;70;68;68
70;64;68;68
64;68;68;64
68;68;64;68
64;64;68;64
68;64;64;68
68;64;64;64
64;68;60;60
64;60;60;62
56;56;56;56
60;56;52;56
54;52;60;54
56;55;48;54
55;52;56;52
48;54;52;46
52;44;46;47
46;46;52;46
46;52;46;52
46;46;47;46
48;47;44;50
47;44;52;46
46;52;46;48
52;52;52;52
46;52;48;48
54;52;54;54
48;54;54;52
56;54;54;56
52;56;56;54
60;52;52;60
56;64;66;60
64;64;60;64
60;64;68;66
68;68;64;64
66;68;68;68
64;70;70;68
68;68;64;70
64;68;68;68
68;64;64;68
64;64;68;64
66;64;64;64
64;64;70;60
60;64;60;64
60;60;60;58
60;60;56;60
60;56;60;56
54;60;54;54
62;52;54;52
50;52;52;52
54;48;52;52
46;52;52;46
52;52;44;52
46;46;54;46
52;52;46;52
47;46;50;46
52;53;46;52
52;46;54;52
52;52;52;54
54;52;54;55
52;58;54;54
56;54;56;60
52;60;60;54
62;60;60;64
60;60;64;60
64;68;60;64
66;64;68;64
64;71;64;68
68;64;68;68
64;71;70;68
71;64;68;68
64;68;70;68
70;68;64;68
68;68;70;68
68;68;64;70
68;64;68;64
64;70;60;64
66;64;64;64
60;64;60;60
62;60;56;60
54;56;60;52
56;54;52;56
55;54;55;52
54;54;52;55
52;52;54;54
52;55;50;52
54;52;52;54
48;54;52;52
52;52;48;54
47;52;54;52
54;54;46;52
52;54;56;48
52;60;52;54
54;54;60;55
54;60;55;56
60;52;60;60
56;60;60;64
64;60;64;64
64;68;66;64
64;64;64;64
60;64;70;64
66;68;64;68
68;64;68;68
68;72;68;68
70;66;68;68
64;68;68;68
68;64;66;70
64;64;64;64
64;64;60;64
64;64;64;60
60;64;54;64
60;56;60;56
56;60;60;60
60;52;54;58
54;54;54;52
54;52;52;60
54;52;52;46
52;54;52;52
52;46;54;52
52;52;44;52
54;46;52;52
46;52;46;50
52;46;52;52
50;52;48;46
52;52;46;54
47;52;54;52
52;55;52;54
52;52;56;54
56;60;54;56
54;54;62;60
56;60;60;64
64;60;64;64
60;64;64;64
64;64;64;68
64;64;68;64
68;70;64;68
64;64;68;68
64;64;68;64
70;68;64;68
64;64;68;64
68;68;64;66
66;64;68;68
64;68;60;60
64;60;60;64
62;62;64;60
64;60;54;60
62;54;56;60
56;56;55;54
58;52;52;54
46;48;52;46
52;47;46;54
46;47;52;46
52;47;44;48
46;46;52;46
47;47;40;46
46;46;52;52
46;48;46;46
52;47;52;52
47;52;52;46
54;52;52;54
52;54;54;52
52;60;52;56
56;52;60;56
54;60;56;56
62;58;64;62
60;68;68;60
68;64;64;68
64;64;68;64
64;68;64;70
68;64;64;68
64;68;64;64
68;64;64;68
64;68;68;64
64;64;64;64
64;64;64;62
60;64;60;60
68;60;60;64
60;62;60;60
60;60;60;60
54;56;60;54
60;54;52;58
52;52;54;52
54;54;47;52
52;48;52;52
46;52;44;46
47;46;46;52
44;46;47;46
46;46;44;47
47;44;46;44
44;52;46;52
47;46;48;47
46;52;47;52
54;47;52;55
48;54;52;52
60;56;52;56
52;54;60;54
60;60;54;62
60;56;62;60
64;64;60;64
64;60;64;68
64;70;64;64
64;64;66;68
64;64;68;64
68;64;68;68
64;64;68;64
64;68;64;68
64;64;68;64
66;64;64;66
66;60;64;60
60;64;60;64
64;54;60;60
60;60;60;60
60;52;54;60
54;56;54;52
54;54;52;54
46;52;54;52
52;52;46;54
50;52;54;48
52;52;52;52
52;46;52;50
46;48;52;46
52;52;46;52
47;46;52;46
52;52;46;44
52;46;52;52
47;52;52;52
54;48;52;54
52;54;58;54
58;54;52;60
54;60;60;60
62;64;60;64
60;64;66;64
64;64;64;68
66;68;68;70
64;68;64;64
68;64;64;70
68;66;68;68
68;70;68;70
70;68;68;68
68;71;70;68
71;64;66;68
64;64;64;64
66;64;64;64
60;68;64;60
64;64;60;68
60;64;64;60
60;60;56;60
60;54;60;56
52;54;54;54
58;54;52;54
52;52;54;52
52;55;54;54
54;52;54;52
52;54;52;54
55;48;54;52
52;60;48;52
54;48;52;52
52;52;52;52
54;52;54;60
52;60;54;60
60;52;54;60
52;60;56;60
60;60;60;62
56;60;60;64
66;60;60;64
60;68;68;64
68;68;64;68
64;68;68;64
68;68;68;68
68;68;70;64
68;68;64;68
64;64;70;60
70;64;64;68
66;68;68;64
64;70;60;64
64;64;68;66
64;68;60;64
64;60;64;60
60;64;60;56
60;52;60;58
54;60;54;52
55;54;56;55
54;54;54;52
52;54;52;54
52;52;54;52
52;52;52;54
54;52;52;47
52;52;44;52
54;46;52;46
48;54;52;52
54;46;54;58
52;54;54;52
54;52;48;54
52;60;60;52
60;62;54;60
56;54;60;56
60;60;54;60
60;54;64;62
60;64;60;64
64;64;64;68
64;68;68;64
66;70;64;70
68;68;70;68
68;70;68;68
71;68;68;68
68;70;66;68
70;64;68;68
64;70;64;64
64;64;66;68
60;68;62;64
64;60;64;64
60;68;60;60
64;54;56;60
52;60;60;54
60;52;52;54
52;54;52;52
54;52;52;52
46;48;52;46
52;47;46;52
46;46;47;44
46;47;44;52
46;44;52;52
46;52;47;46
46;46;52;47
46;52;52;52
52;46;52;54
47;48;54;52
54;48;46;58
52;54;54;52
60;58;56;60
60;58;60;58
60;64;60;64
66;64;66;68
64;64;64;64
68;64;64;64
64;64;64;64
68;64;64;68
64;68;70;66
69;66;64;68
64;68;68;64
68;64;64;68
64;64;70;64
68;68;60;64
60;60;64;60
60;66;60;60
60;56;60;62
60;60;56;54
60;56;60;60
52;54;54;52
52;54;52;60
52;52;52;48
52;54;52;54
52;52;52;46
48;52;44;52
46;46;46;46
46;47;46;52
47;47;52;46
46;52;46;52
52;48;52;48
52;54;47;52
52;52;56;54
54;60;52;54
62;54;60;60
60;64;60;64
62;64;64;60
64;68;64;66
68;64;68;64
68;68;66;68
68;64;68;66
68;68;66;64
71;68;64;68
64;68;68;68
68;68;68;68
60;64;68;64
64;68;64;68
64;64;68;60
64;66;56;64
60;54;64;56
58;64;56;60
60;54;56;56
52;60;58;54
54;54;52;54
52;52;52;46
52;47;52;52
52;48;52;47
52;52;48;52
47;46;52;46
48;52;46;52
52;48;52;46
46;52;46;50
50;46;46;52
46;52;47;52
52;46;52;54
52;52;54;52
54;54;48;56
52;52;56;52
55;54;54;60
58;56;60;60
60;62;60;64
64;60;64;64
64;68;64;60
66;68;64;70
64;64;68;64
64;70;64;68
66;64;68;66
64;68;64;64
66;64;64;64
64;64;60;64
64;60;64;64
60;64;62;60
64;62;60;64
60;54;60;56
58;60;56;60
56;52;60;54
52;56;52;52
52;52;54;50
46;52;52;46
54;48;46;52
47;46;47;44
50;46;46;52
46;48;47;44
46;46;44;46
47;46;47;44
46;50;44;46
46;44;52;47
44;54;47;50
52;52;50;52
48;54;52;54
60;52;54;55
54;60;54;54
62;56;60;64
60;60;62;60
65;66;64;68
68;64;68;64
66;70;64;68
68;64;70;66
64;68;64;68
64;64;68;68
68;70;68;64
68;64;64;68
64;66;64;60
64;64;64;64
60;64;62;60
64;64;60;64
58;60;62;60
64;60;60;64
56;60;62;56
56;60;54;60
55;52;54;48
52;52;48;54
47;52;54;50
52;54;46;52
52;46;52;46
46;52;50;46
52;44;46;50
44;52;52;46
52;52;44;52
47;46;54;48
52;54;52;54
54;52;54;52
52;60;55;54
60;52;56;54
54;60;60;56
64;60;60;65
58;60;64;64
64;60;60;64
64;64;64;64
64;68;60;68
68;64;68;64
64;68;66;64
66;64;64;64
64;68;64;64
68;64;64;64
64;68;64;64
64;64;64;64
60;64;64;56
64;60;60;64
56;62;60;60
62;60;56;60
54;56;60;52
56;54;52;54
52;52;54;48
52;52;46;52
52;46;52;46
48;52;46;52
47;44;47;46
46;47;44;46
46;44;46;46
44;46;44;44
46;44;46;46
40;46;44;46
52;46;50;46
47;46;46;48
52;47;48;52
47;54;52;52
54;54;54;55
54;60;60;56
60;60;56;64
60;60;68;64
64;64;64;64
64;64;68;64
64;64;64;64
64;64;68;66
64;70;64;68
68;64;68;64
64;68;64;68
68;64;68;68
64;64;64;64
68;60;64;64
60;64;64;60
64;64;64;68
60;60;64;56
60;60;54;60
60;56;60;54
54;60;52;54
52;52;54;52
48;52;44;48
52;46;52;52
46;46;46;44
47;44;46;47
44;46;47;44
44;46;46;46
46;46;46;44
48;46;44;47
47;46;54;46
52;52;46;52
47;48;52;46
54;54;52;60
52;52;55;52
54;54;52;58
60;60;62;56
64;68;64;68
62;64;68;64
64;70;64;68
66;64;68;68
64;68;64;64
68;64;64;68
64;64;64;64
64;64;64;68
64;64;64;64
64;64;64;64
60;64;64;64
64;64;60;66
60;64;66;60
60;60;56;62
54;60;62;54
56;56;54;56
52;54;54;50
48;55;48;52
52;44;52;46
52;47;46;48
46;46;52;47
46;52;46;46
46;44;48;46
46;47;44;46
52;44;44;46
44;47;46;44
46;52;48;52
46;52;52;48
54;52;48;54
52;52;54;48
54;54;52;56
52;52;60;54
58;62;60;62
60;60;68;60
64;68;60;64
64;60;68;66
64;68;64;64
68;64;64;68
64;64;68;64
68;68;64;70
64;64;68;64
68;70;64;68
64;64;68;60
64;66;60;64
64;64;66;64
56;60;54;60
60;60;64;64
60;64;62;56
60;56;56;60
55;54;58;52
54;55;54;54
52;52;52;48
52;52;48;52
52;46;55;52
52;52;50;52
52;44;52;46
48;52;47;52
52;46;52;47
46;54;46;52
52;44;52;46
52;54;48;52
52;46;52;48
52;52;48;54
52;52;55;52
56;56;54;60
55;58;60;60
60;64;60;64
64;64;66;60
64;68;64;68
64;64;68;64
68;68;64;68
68;64;68;64
68;64;68;68
64;68;70;68
68;68;64;68
64;68;64;64
68;64;64;64
60;64;60;60
68;64;64;64
60;64;60;60
64;58;60;64
54;60;60;54
60;54;52;56
52;52;52;48
54;52;52;52
52;52;52;48
52;52;52;52
47;46;46;46
47;46;44;52
46;52;48;44
52;46;46;52
44;52;52;46
52;47;48;54
46;52;52;52
54;54;54;56
54;54;55;54
56;58;54;60
60;56;60;54
60;60;60;64
60;64;64;64
64;64;64;68
60;64;66;64
68;68;64;68
68;68;68;64
68;70;64;68
68;64;68;68
64;70;64;66
68;64;64;68
64;68;64;66
68;64;64;68
64;68;68;64
68;64;64;68
64;64;64;60
64;54;60;60
54;60;60;54
56;54;52;56
52;52;54;52
54;46;48;52
46;46;46;46
46;46;44;52
46;46;47;44
46;46;44;52
46;46;47;44
50;47;44;47
46;52;47;44
52;44;44;52
44;48;47;46
52;46;46;52
46;52;52;46
54;54;52;54
55;52;56;52
60;56;52;54
55;56;60;60
60;64;54;60
60;64;64;60
64;64;64;68
66;60;68;64
64;68;64;66
68;64;68;68
64;70;64;64
68;64;66;64
64;70;64;64
64;64;64;64
60;64;60;64
64;60;64;60
60;68;60;60
62;60;60;64
56;60;60;56
56;54;54;60
52;52;54;52
54;54;52;54
50;52;54;46
52;52;46;52
46;46;47;46
48;52;46;50
44;48;47;46
46;47;44;47
44;46;46;44
47;52;46;52
46;46;54;46
52;55;52;54
52;56;58;52
54;52;52;56
52;52;56;54
56;58;56;60
56;58;60;56
60;64;64;64
64;64;64;64
66;66;64;68
68;64;68;64
64;68;64;68
68;64;68;64
64;70;68;68
68;64;68;64
64;70;64;64
64;60;64;66
64;68;64;64
68;64;64;64
60;64;60;60
60;60;60;64
60;60;60;54
60;54;52;60
52;56;55;52
54;54;48;54
52;52;52;44
52;52;46;52
46;50;54;46
52;47;46;52
44;47;52;46
50;47;48;52
44;47;52;46
46;46;46;47
47;46;54;47
52;47;46;52
52;48;52;48
50;54;46;52
52;52;56;54
52;56;52;54
56;52;56;54
54;60;52;56
60;60;60;60
60;60;60;64
64;60;64;64
64;64;64;64
68;64;64;68
64;68;64;64
64;64;68;68
64;68;66;64
68;64;64;68
64;64;60;64
64;64;64;64
62;64;60;60
64;58;60;64
60;64;60;60
60;56;56;60
52;60;56;54
54;56;54;54
52;55;54;46
54;52;52;54
48;52;48;47
54;52;52;54
46;48;46;46
50;46;46;52
46;48;47;46
52;46;46;47
44;46;52;46
47;46;46;52
52;52;54;52
52;52;52;54
54;52;54;52
52;56;54;60
60;54;60;60
60;60;60;64
60;60;66;60
64;64;60;64
64;64;64;64
64;66;64;66
68;64;64;68
64;68;64;64
68;64;64;64
64;70;66;64
68;64;68;68
64;64;68;64
64;68;64;68
64;64;64;60
64;64;60;66
60;64;64;56
64;64;56;60
60;56;60;52
56;56;54;60
54;52;54;52
52;52;46;54
54;52;54;50
52;56;46;52
54;46;52;47
44;52;52;44
52;52;46;52
46;52;47;46
52;52;46;52
46;52;47;47
54;47;52;54
50;48;52;46
52;52;52;56
52;52;54;52
56;54;52;60
56;60;60;60
64;64;60;64
62;64;66;64
66;70;64;68
68;68;68;66
64;68;64;64
68;64;64;68
64;66;68;64
68;64;64;68
64;64;68;64
66;64;64;68
64;64;68;60
64;68;60;64
60;60;64;60
64;64;54;64
60;56;60;54
54;56;54;56
60;56;56;52
52;52;48;54
52;52;54;52
52;54;46;52
52;46;52;46
48;52;44;46
52;46;52;46
46;52;47;48
46;44;52;46
46;46;44;47
44;46;52;46
48;47;44;52
47;46;52;44
52;52;48;52
46;46;55;52
54;54;52;54
54;54;60;54
60;58;56;60
60;64;62;60
64;64;60;64
64;64;68;64
64;64;60;68
64;64;68;64
64;70;64;68
68;64;68;64
64;68;64;68
68;64;70;64
68;64;64;68
64;64;66;60
64;64;60;64
62;64;64;60
64;64;60;64
60;60;60;60
56;54;52;56
52;52;52;48
54;54;48;52
52;46;52;46
52;52;44;52
46;52;54;47
46;54;46;46
52;44;52;46
46;50;46;46
52;46;46;52
44;48;47;44
52;52;46;52
47;52;54;46
52;52;48;54
50;52;54;52
54;54;52;56
52;54;60;54
60;60;54;62
56;60;64;62
64;64;60;64
60;64;64;64
64;68;64;68
64;64;68;62
64;68;64;68
68;64;68;64
64;68;64;68
64;64;68;64
64;64;64;66
64;64;64;60
64;64;60;60
60;60;64;60
64;68;60;64
60;56;60;54
56;60;54;54
54;52;54;52
52;54;52;52
52;48;52;47
46;54;46;50
47;46;52;46
52;47;44;52
47;46;47;46
52;47;46;50
47;46;46;44
46;46;46;52
46;46;47;44
46;52;46;54
47;52;54;48
56;52;46;54
52;54;54;52
54;60;54;60
56;56;60;54
64;64;58;64
60;64;66;60
64;64;64;64
66;68;68;64
70;64;68;68
64;64;64;64
70;64;64;70
64;68;64;64
68;64;64;66
64;68;64;64
64;64;64;64
60;66;64;64
64;60;60;62
60;64;62;60
68;60;60;60
60;64;60;56
60;54;56;55
52;54;52;52
56;52;52;52
48;52;52;46
52;46;52;54
46;48;46;46
52;46;44;47
44;48;47;46
47;46;46;52
44;46;48;47
48;44;46;52
46;52;47;46
52;48;48;54
46;52;52;52
55;52;52;56
52;54;52;54
63;60;58;60
58;62;56;64
64;64;60;64
64;68;64;64
68;60;66;68
64;70;64;64
70;68;68;64
64;70;64;64
68;64;68;64
64;68;64;64
68;64;64;64
64;68;64;64
68;64;64;64
60;64;60;64
64;62;64;60
60;62;56;60
60;56;60;55
52;58;52;54
56;48;54;52
52;54;48;52
47;48;52;47
46;47;44;52
46;46;52;46
48;47;44;52
47;46;46;44
52;46;46;52
46;46;46;44
52;44;44;46
46;52;52;46
52;48;46;52
46;48;52;52
54;52;52;60
48;56;55;52
54;56;52;60
56;56;60;58
64;64;60;64
60;64;64;64
64;64;64;68
64;64;64;64
64;68;64;68
68;64;68;68
64;70;64;68
68;64;68;64
68;71;64;68
64;64;70;64
64;66;64;64
60;60;64;60
64;60;56;60
60;56;56;54
56;62;52;56
56;52;54;52
54;60;52;52
55;46;52;52
48;52;46;46
52;46;52;46
48;54;44;46
52;46;52;46
46;52;48;46
47;46;54;46
46;52;46;46
47;48;52;46
46;52;46;46
52;48;54;52
52;56;52;52
52;52;60;54
52;60;52;56
56;54;52;60
54;60;55;54
60;56;60;62
56;64;64;64
64;64;64;64
60;64;64;64
68;68;64;68
66;64;64;64
64;68;64;64
68;64;68;64
64;64;64;64
64;60;64;68
60;64;64;60
64;64;60;64
60;60;64;60
60;60;60;62
60;56;60;58
58;60;54;56
58;54;60;54
52;60;52;52
54;52;52;54
52;52;52;52
54;52;46;54
46;52;52;44
52;47;50;54
47;52;54;46
52;55;52;54
52;48;52;48
54;52;48;52
52;46;52;52
54;54;52;54
52;54;54;52
56;54;54;56
54;56;62;54
60;60;60;60
60;60;60;56
64;64;60;64
60;64;68;64
64;66;64;64
64;64;68;66
64;68;64;64
64;64;70;64
66;68;64;64
64;64;64;64
64;64;64;64
64;64;64;64
60;68;62;64
64;60;64;64
60;64;60;60
60;60;64;60
56;60;54;54
56;52;58;58
54;60;54;52
54;48;54;55
52;60;52;52
54;52;52;52
48;52;52;46
52;47;52;52
46;52;46;46
52;46;48;52
46;46;46;46
46;52;44;52
46;52;54;46
52;52;46;54
54;52;52;52
58;55;54;60
52;52;56;54
60;56;56;62
60;60;60;58
64;62;56;66
60;68;68;64
64;64;64;68
64;64;68;64
68;68;68;68
68;64;70;64
64;68;64;68
68;64;68;64
64;70;64;68
64;64;64;64
64;64;60;64
64;60;64;60
64;64;60;64
62;60;60;60
56;60;54;56
60;56;54;60
52;56;56;52
56;58;52;56
52;52;54;46
52;55;48;52
47;52;52;52
52;55;46;52
52;46;52;46
52;54;46;52
46;46;52;46
52;52;46;52
52;48;52;46
52;54;52;52
52;52;54;52
54;55;52;54
54;52;56;60
56;58;54;60
60;54;64;62
60;62;64;64
66;64;64;64
64;68;68;68
68;64;68;68
68;70;70;68
68;66;64;70
68;68;70;68
70;64;64;68
64;68;68;64
68;64;64;68
64;64;68;64
64;60;64;64
62;66;64;60
62;60;56;64
62;64;60;60
60;56;56;60
54;56;60;52
56;54;52;58
52;52;52;50
54;54;52;54
52;52;56;47
52;52;48;52
47;48;52;46
52;52;46;46
52;46;46;47
44;52;46;47
52;44;46;47
46;52;52;48
52;52;52;55
47;48;54;52
54;54;52;54
54;56;58;56
60;60;56;60
58;60;64;60
64;66;64;64
64;64;68;64
64;68;64;64
68;64;64;68
64;64;68;64
68;64;64;68
68;68;68;64
68;68;64;68
68;64;68;64
64;68;68;64
66;60;64;64
60;64;64;64
68;64;64;64
60;56;60;60
60;60;56;58
60;56;60;54
56;56;52;60
54;52;55;52
52;54;47;48
52;46;52;52
48;52;52;44
48;46;46;52
46;46;52;44
46;46;44;52
47;46;52;46
52;52;44;54
52;52;54;46
50;52;48;52
55;52;54;52
52;60;54;60
58;52;60;60
56;64;60;56
66;60;64;64
60;64;68;64
64;64;64;68
66;68;68;68
68;70;68;70
71;64;68;66
64;68;68;64
68;64;66;68
68;68;64;64
68;68;68;70
68;68;68;64
64;68;64;68
64;64;66;60
64;64;60;64
60;64;64;60
60;60;54;60
60;54;60;56
54;58;60;56
60;54;56;55
52;54;52;52
58;52;52;52
48;52;52;52
54;52;52;52
52;46;54;48
52;54;48;52
48;46;52;46
52;55;47;52
52;46;54;52
52;54;52;52
54;52;54;56
52;54;54;52
60;52;54;60
54;56;60;54
60;58;56;60
60;60;60;60
64;60;64;68
60;64;68;64
68;66;64;68
64;64;68;64
64;68;64;70
68;68;70;64
68;68;68;70
64;64;68;64
64;64;64;68
64;64;64;60
64;64;60;64
60;64;64;58
60;60;56;64
60;68;62;60
60;58;60;64
54;56;54;52
55;52;52;54
52;54;54;48
58;52;52;52
52;56;52;48
52;48;47;52
52;52;52;46
47;46;52;52
46;52;52;46
52;46;47;52
46;52;48;52
55;52;54;54
52;58;54;54
54;54;54;56
54;60;56;54
60;54;60;60
60;64;60;60
64;60;60;64
64;68;64;64
68;60;64;68
64;68;68;64
68;64;64;71
68;68;68;64
70;64;64;70
64;68;70;64
68;64;64;68
64;68;64;64
70;64;60;68
64;68;66;60
64;56;60;66
60;64;62;60
66;60;64;64
60;60;60;52
60;52;52;60
54;52;54;48
54;54;52;54
52;52;54;46
52;54;46;52
48;52;54;52
52;52;48;48
52;46;52;46
48;52;46;52
47;46;52;44
48;52;44;48
52;46;54;52
52;54;52;55
54;52;54;52
52;55;54;60
60;54;60;54
54;60;58;60
60;60;68;60
60;64;64;64
64;64;68;66
64;64;64;64
68;64;68;68
64;68;66;64
71;64;68;68
64;68;68;64
70;64;68;68
64;68;68;64
70;68;64;68
60;66;64;60
68;60;64;66
60;64;62;60
64;62;56;60
56;56;54;54
58;60;54;58
54;52;54;54
58;56;52;56
54;52;54;48
54;52;52;54
52;52;55;52
52;55;52;54
47;48;52;47
50;52;46;52
52;52;52;47
48;54;52;52
47;46;52;50
52;52;48;52
52;46;54;54
54;54;52;52
60;54;56;54
54;60;56;56
60;60;60;62
60;68;64;64
64;62;64;68
64;68;70;64
68;68;66;68
66;68;76;68
70;68;68;70
68;68;70;64
68;70;68;70
70;64;70;68
68;68;64;66
68;64;68;64
64;68;68;64
66;64;64;60
60;66;60;60
64;60;64;60
56;64;54;56
60;55;60;60
54;54;54;52
60;52;54;52
52;60;54;52
54;52;54;52
52;54;48;52
54;52;52;52
50;52;52;46
54;46;52;52
48;52;52;48
52;47;52;52
46;52;55;46
52;46;52;54
52;52;52;52
56;52;52;58
52;56;60;54
62;56;64;64
60;64;60;60
68;60;64;64
64;64;64;64
68;64;68;68
64;64;64;64
68;64;68;68
64;64;64;64
68;64;68;68
64;68;64;64
68;64;64;64
64;68;62;64
66;60;64;64
60;64;56;64
62;60;64;60
56;60;52;54
63;54;60;55
52;54;52;54
55;48;52;52
52;54;52;52
56;46;52;52
46;52;47;46
54;44;52;47
46;54;52;48
52;46;52;52
47;52;47;46
52;46;46;52
46;52;47;52
55;54;60;54
52;60;54;52
60;52;52;56
54;56;60;54
60;54;60;60
54;60;60;60
64;58;64;62
60;68;66;64
68;64;68;68
64;64;64;64
68;64;64;68
64;64;64;64
70;64;64;68
64;64;68;68
68;64;64;68
64;68;68;64
70;64;64;66
64;64;64;60
68;62;60;62
58;60;64;60
68;60;60;64
56;54;54;54
62;56;52;54
52;52;56;52
54;54;52;54
55;52;52;52
50;60;48;50
54;47;52;47
47;52;46;46
48;46;46;47
46;46;47;47
52;46;44;47
46;54;52;44
52;47;48;52
50;52;54;52
54;54;52;58
54;56;56;52
60;60;54;60
54;56;60;54
60;60;56;60
56;64;64;60
64;64;60;64
64;62;68;64
64;68;64;68
68;64;68;64
64;70;64;64
68;64;66;68
64;68;64;64
68;64;68;64
64;68;64;64
68;64;64;64
60;68;62;64
66;60;64;62
60;64;60;60
60;56;62;60
56;60;54;54
60;52;54;54
52;54;54;54
55;52;52;52
48;47;46;48
52;46;52;47
44;50;46;46
52;46;52;47
44;46;46;46
52;52;46;52
46;50;47;48
54;44;46;47
46;48;46;46
55;46;48;52
52;54;52;54
60;52;54;55
54;60;60;56
62;54;60;62
56;60;64;60
64;60;64;64
64;64;64;64
68;68;68;68
64;64;68;68
68;64;64;68
68;64;68;64
64;68;64;64
68;64;68;64
64;68;64;64
64;56;64;60
60;64;60;64
60;60;62;54
60;63;56;60
60;60;64;54
62;60;54;60
54;52;54;52
56;55;52;52
52;52;54;52
52;48;46;52
47;46;52;47
52;47;46;47
44;44;52;44
52;47;46;52
46;46;52;46
52;47;44;48
52;44;48;44
52;47;46;47
46;46;52;52
54;52;48;52
52;52;56;52
60;52;52;60
54;60;58;54
60;54;60;62
56;60;60;60
66;60;64;64
64;64;64;60
68;64;64;66
64;64;64;64
70;64;64;68
64;64;68;64
68;68;64;70
66;64;68;64
68;64;64;66
64;64;64;60
64;68;60;64
64;56;64;58
60;62;58;56
62;60;60;56
58;60;56;54
58;52;56;52
52;54;48;52
52;46;52;46
48;47;46;46
52;44;52;47
46;54;46;48
52;46;52;52
52;52;47;46
46;44;52;52
46;52;46;46
52;44;52;52
52;54;46;48
55;47;52;52
52;52;54;52
54;52;52;58
54;60;60;56
60;56;56;62
60;64;62;60
64;64;64;64
64;68;70;64
68;68;64;70
64;64;68;64
68;68;64;68
68;64;70;64
68;64;64;68
64;64;70;64
64;66;64;66
64;64;68;64
64;60;64;68
64;68;68;60
66;60;60;64
60;64;60;56
60;54;56;60
54;56;54;52
56;54;52;54
54;54;52;52
52;48;52;54
50;52;54;46
52;46;48;46
46;52;46;46
52;46;47;47
44;47;47;44
47;46;46;52
47;47;47;46
48;48;52;54
52;54;54;52
56;52;52;54
54;54;55;52
60;52;60;60
60;60;60;60
60;54;60;60
60;68;60;64
68;60;68;68
64;68;66;64
68;64;68;66
64;68;68;64
68;64;64;68
64;64;66;64
68;68;64;64
64;64;68;60
64;64;60;68
64;64;62;56
64;64;60;64
60;64;64;60
62;58;56;56
56;56;60;52
56;54;48;52
52;46;54;47
46;52;46;52
52;46;52;46
46;52;46;47
47;44;46;44
46;46;44;46
47;44;52;44
44;46;46;44
46;44;52;46
46;52;44;52
54;46;52;52
52;52;52;52
55;48;52;52
52;52;52;52
58;52;56;60
54;60;62;60
64;56;64;64
60;64;66;64
68;64;64;68
64;64;64;66
68;68;64;68
64;64;68;68
68;70;64;68
64;64;68;64
68;68;64;68
66;64;68;66
68;68;60;64
66;64;66;60
64;68;64;64
64;60;64;60
60;64;62;60
62;56;60;60
54;54;58;56
60;54;56;56
54;52;55;52
54;52;46;54
52;52;54;46
48;52;46;52
52;46;52;52
52;54;46;52
54;48;48;47
46;52;46;52
55;47;47;52
46;54;52;52
54;52;48;52
48;52;52;52
56;54;48;52
52;52;60;52
56;60;56;60
55;54;60;56
62;64;60;64
64;64;64;60
64;66;64;64
66;64;68;64
64;64;64;64
68;64;68;68
68;68;64;64
68;64;64;66
64;68;64;64
68;64;64;62
60;64;64;60
68;60;56;60
60;60;63;56
64;60;60;60
60;60;60;56
60;56;54;60
52;52;54;52
52;52;50;54
52;52;54;46
52;47;46;52
47;48;47;46
47;47;44;47
47;44;52;44
46;47;44;46
47;44;47;46
44;52;46;44
52;44;46;46
44;46;52;52
55;46;52;52
52;54;52;52
58;52;54;54
52;54;54;56
60;54;60;60
56;60;60;60
64;56;64;64
60;64;60;60
68;56;68;64
64;64;64;64
68;64;68;64
64;68;64;64
68;64;64;68
64;64;64;64
68;60;64;64
60;68;64;60
64;58;64;62
60;60;60;60
68;58;64;62
58;64;60;64
63;60;64;60
58;60;56;60
60;54;60;54
56;55;52;56
54;52;54;52
52;54;54;54
52;54;55;46
52;52;52;54
52;46;54;48
52;52;47;54
50;52;54;48
52;52;52;52
52;52;54;52
52;52;52;54
54;52;56;52
52;54;52;60
60;56;60;52
56;60;56;64
60;60;66;64
64;64;64;66
66;64;64;64
66;66;64;68
68;64;68;64
66;64;64;68
68;64;68;64
64;68;60;68
68;64;68;64
64;68;64;64
68;64;64;64
60;64;64;64
68;60;64;64
60;64;60;60
62;60;64;62
56;60;54;60
60;54;60;56
54;60;52;52
54;52;52;52
48;52;48;50
47;47;54;46
46;54;46;52
52;48;52;46
48;46;46;52
47;46;52;44
52;46;46;46
47;46;52;46
52;52;46;52
52;52;54;46
54;52;52;54
54;52;56;48
55;54;52;58
56;56;60;54
60;58;56;62
60;60;66;64
64;64;64;64
68;68;68;64
68;68;64;68
68;64;68;64
68;68;64;64
68;64;68;60
64;68;64;68
68;64;68;64
68;64;64;64
64;64;68;64
64;68;60;64
64;56;62;56
60;60;56;60
62;54;60;56
54;54;54;58
60;52;60;52
52;54;54;54
55;48;54;52
52;52;47;54
54;52;54;48
48;52;46;52
50;44;52;46
47;46;44;50
50;44;52;44
48;52;47;52
46;46;52;46
52;52;52;54
52;52;60;52
54;54;52;52
56;48;52;52
54;54;60;56
60;54;60;56
54;60;60;64
63;64;64;60
60;64;64;64
64;64;70;64
64;68;60;68
68;64;68;64
64;68;64;70
68;64;68;66
64;68;64;64
70;64;68;64
60;66;64;64
66;60;64;64
64;64;64;64
66;54;64;60
60;64;60;60
64;56;56;54
52;54;56;52
58;48;54;54
48;54;54;48
56;46;52;52
46;52;52;46
54;44;52;46
46;50;47;46
52;47;52;47
46;52;46;52
52;47;54;46
52;52;46;52
52;52;54;52
54;54;52;54
56;54;60;54
60;54;54;60
56;62;60;54
60;54;60;60
60;64;60;64
66;64;66;68
64;64;64;64
68;64;68;68
68;70;64;68
68;64;68;66
64;70;64;68
68;64;68;68
68;68;64;64
68;64;70;64
68;68;64;68
64;64;68;64
68;64;64;64
60;64;64;60
62;60;60;62
54;60;60;52
62;54;54;55
54;56;55;52
55;52;52;52
52;54;54;52
55;48;52;46
46;52;46;50
54;46;52;46
46;54;44;52
47;46;52;46
46;52;44;46
52;47;54;46
48;52;48;52
54;52;54;54
52;54;52;54
60;52;58;54
54;60;56;56
63;60;60;62
60;62;60;64
68;60;64;64
64;68;64;64
68;64;64;68
64;64;64;64
70;60;64;68
64;68;68;64
70;64;64;64
64;68;66;64
68;64;64;64
64;66;68;64
68;64;64;64
56;64;60;60
64;54;60;60
60;62;60;60
62;54;60;54
54;60;52;54
55;52;54;48
52;50;48;50
52;47;52;47
46;50;47;52
47;48;52;44
47;52;44;47
46;44;47;44
46;46;46;52
47;47;47;46
52;46;46;54
47;52;52;46
52;46;48;54
52;52;52;52
55;52;54;52
54;60;52;52
56;52;60;56
56;60;56;60
60;60;60;60
64;64;60;64
64;64;70;68
68;68;64;64
68;64;68;68
64;70;64;68
66;64;68;68
64;68;64;64
64;64;68;64
64;68;64;68
64;64;64;60
64;68;60;64
56;56;64;60
64;60;56;60
60;60;60;56
60;56;56;56
52;52;54;52
60;52;52;54
48;48;54;46
54;52;52;52
46;48;54;46
52;52;52;52
46;48;47;46
52;52;47;52
46;46;52;46
52;46;46;52
46;46;47;46
52;46;46;52
46;48;54;52
52;52;52;56
54;54;60;54
60;56;52;58
55;54;62;56
64;60;60;60
60;64;64;60
64;68;64;64
64;64;68;64
64;64;64;64
66;64;64;68
64;70;68;64
68;64;64;68
64;68;68;64
68;64;68;68
66;64;64;64
68;64;66;64
64;68;64;60
64;54;60;63
60;60;60;54
60;56;60;60
56;56;54;52
54;52;52;54
52;54;52;52
54;52;54;52
52;46;46;48
52;46;52;52
52;54;52;48
50;46;46;47
50;54;50;48
54;47;46;52
50;52;52;52
52;52;52;55
54;60;55;54
58;52;54;56
56;56;52;52
54;54;60;58
58;58;56;60
64;60;60;62
64;64;60;64
66;64;64;64
64;68;64;64
66;60;64;68
68;68;64;64
68;64;68;64
68;68;68;64
68;64;68;68
68;71;64;68
66;64;68;64
64;64;64;64
62;60;64;64
64;64;60;64
62;56;64;58
60;60;56;60
58;56;60;56
60;58;54;60
52;52;60;52
56;54;52;52
52;52;54;48
52;47;46;52
48;48;54;44
52;52;46;52
44;48;52;44
52;46;46;52
46;46;52;44
52;46;48;52
46;52;52;52
54;47;50;54
52;54;54;52
58;52;54;58
54;60;60;56
62;60;60;64
60;64;64;60
68;56;60;64
60;64;64;64
68;64;64;68
64;64;71;64
68;68;64;64
68;64;68;64
68;70;64;64
64;64;68;64
68;64;64;64
62;64;64;60
66;64;60;64
60;56;64;54
64;60;54;60
56;52;60;54
56;60;52;54
54;52;54;52
54;55;52;52
54;48;52;52
47;52;52;46
52;46;52;52
52;47;46;52
52;46;52;52
55;54;47;48
47;46;55;46
54;52;46;52
46;52;54;46
55;52;52;52
48;52;54;52
56;48;54;52
52;54;54;52
54;52;60;56
56;60;60;60
62;54;64;60
64;60;64;68
64;64;68;64
68;64;64;70
68;70;68;64
70;64;68;70
64;68;66;64
68;64;68;66
68;68;64;64
68;64;68;68
64;64;60;64
66;64;68;60
64;64;56;64
60;60;64;54
64;60;60;62
54;60;60;54
60;54;52;54
52;56;54;52
58;52;52;54
46;52;52;46
54;46;46;54
46;52;47;46
52;44;46;46
46;54;46;52
54;46;52;50
48;54;50;52
52;52;54;52
52;55;52;54
54;54;60;54
60;62;52;60
60;54;58;54
56;60;56;60
62;60;62;60
64;66;64;64
68;68;70;64
68;68;68;68
68;68;68;68
64;68;64;66
71;64;68;68
64;68;64;68
71;68;68;70
64;68;68;64
68;64;64;66
64;64;68;64
68;62;64;66
64;64;64;60
66;64;60;68
62;64;68;60
64;60;60;60
56;60;62;54
60;56;55;56
52;52;60;52
54;54;46;52
52;48;54;47
52;54;52;52
54;46;52;47
46;52;44;46
52;46;52;52
46;52;46;46
52;52;54;52
52;54;54;52
52;52;54;60
52;52;55;48
56;52;52;54
56;54;54;52
60;55;56;62
60;64;62;60
64;60;64;62
60;64;60;64
66;64;64;68
64;68;68;64
68;66;68;68
68;68;68;64
68;66;68;70
64;70;68;64
68;68;68;66
64;68;64;64
64;60;64;60
60;64;60;54
64;60;60;62
60;60;62;56
60;56;54;60
54;58;54;52
54;48;52;52
52;48;52;44
52;47;48;46
47;46;52;44
50;46;46;47
47;46;47;44
46;52;46;52
47;47;52;44
46;47;46;52
52;47;52;46
50;52;48;52
54;48;52;48
52;54;54;52
58;52;54;52
52;56;54;54
60;54;56;54
54;56;54;56
62;60;64;60
60;68;64;60
68;64;64;68
64;64;68;64
70;68;66;64
64;64;68;64
68;64;64;68
68;64;71;64
68;64;64;68
64;64;68;64
68;60;60;64
60;60;68;60
64;60;60;60
60;60;64;60
60;60;56;60
60;54;60;52
60;54;52;54
54;52;56;52
52;52;48;52
52;48;52;47
46;52;47;46
50;46;48;47
46;52;46;48
54;46;52;52
52;52;52;46
52;50;52;54
46;52;47;48
52;46;52;52
52;52;52;52
54;52;52;54
52;54;58;52
52;56;56;54
60;52;60;54
58;60;56;64
64;60;64;60
60;68;64;64
64;64;66;66
64;68;64;64
71;68;68;70
64;68;68;64
70;64;68;68
64;68;68;64
70;64;64;68
64;68;68;60
68;60;60;64
60;64;64;56
64;56;56;64
56;54;60;54
60;54;52;56
55;52;56;46
52;54;48;52
48;46;52;46
52;46;44;48
46;44;52;44
46;52;46;46
46;44;52;44
52;52;46;48
46;44;54;44
52;52;44;50
47;46;50;47
50;52;52;52
55;46;52;54
52;58;52;54
58;52;56;52
54;56;52;52
54;52;56;60
60;60;60;60
64;60;60;64
60;64;64;64
68;64;64;68
68;64;68;64
68;68;64;68
68;64;68;64
64;68;64;64
68;64;68;64
64;70;66;64
68;60;64;64
64;68;64;60
68;60;60;64
60;64;64;64
70;64;60;64
60;60;62;56
64;60;54;60
58;54;60;52
55;54;52;52
52;48;52;52
52;54;52;52
52;46;52;52
52;52;46;52
50;46;52;50
46;52;47;46
52;46;48;52
46;46;52;44
46;44;46;52
47;48;55;46
52;52;52;54
52;52;60;48
54;54;54;54
54;52;60;54
58;60;56;64
62;60;62;58
64;64;64;68
68;64;70;64
68;68;68;68
68;64;70;68
68;70;68;68
70;64;70;68
64;68;64;64
71;64;64;68
64;68;64;64
70;64;64;64
60;64;64;60
68;60;64;64
60;60;64;56
60;62;60;64
60;54;56;52
60;54;52;56
54;52;60;54
52;54;52;52
55;52;54;52
52;54;46;52
54;46;52;50
46;54;50;46
52;46;47;47
44;47;46;46
47;46;52;52
47;54;52;48
52;52;52;52
52;54;52;52
54;48;52;52
54;58;54;54
56;52;52;56
58;60;60;54
62;60;60;64
62;64;64;60
68;68;68;68
64;64;68;64
64;68;64;64
68;64;68;64
64;68;68;64
71;64;68;70
64;68;68;64
70;64;64;64
64;68;68;64
68;64;64;66
60;64;64;56
64;60;60;64
62;64;64;56
62;60;54;56
56;52;60;52
54;58;48;54
52;52;54;52
54;52;52;52
54;46;52;54
52;52;47;46
52;46;46;47
46;52;47;46
52;44;46;52
46;44;46;44
47;47;46;46
44;46;47;46
48;47;52;52
46;52;54;52
54;54;52;54
52;52;56;52
54;56;56;58
60;60;60;60
60;66;62;64
68;64;68;68
64;68;68;64
71;68;64;70
68;64;68;64
68;68;64;68
64;64;68;64
64;66;64;64
66;64;68;64
64;68;60;64
64;64;68;60
64;64;60;60
60;60;64;66
62;64;60;60
62;54;64;60
56;58;54;54
60;54;56;56
52;54;54;52
54;46;52;52
50;52;54;46
52;47;52;52
46;46;52;46
52;52;47;52
46;46;46;46
48;52;46;52
47;46;52;46
48;52;48;52
47;44;52;46
52;54;52;54
54;52;54;52
54;56;54;54
57;52;60;54
54;62;60;64
62;56;64;64
64;68;60;64
68;64;68;68
68;68;64;68
68;64;64;68
64;68;68;64
70;68;68;70
64;68;68;64
70;68;64;68
64;64;68;64
68;64;60;66
64;64;66;64
66;64;60;64
64;60;68;60
64;62;60;64
60;56;62;54
60;60;56;56
58;54;60;54
56;60;52;54
58;52;54;52
52;52;52;52
54;52;56;52
52;54;50;52
54;46;52;52
52;48;46;44
52;46;48;47
46;52;46;48
54;47;52;56
55;54;54;52
58;54;54;60
54;56;56;54
60;60;60;64
60;60;64;56
64;62;60;64
60;64;68;64
68;66;64;68
68;68;71;66
68;68;68;68
68;68;70;68
71;70;68;68
68;68;70;64
68;70;68;70
68;64;70;64
64;68;64;68
64;64;64;60
64;68;64;64
64;60;64;60
60;64;60;60
64;54;60;56
56;60;54;56
60;54;54;52
52;56;52;52
55;46;52;47
52;54;52;52
52;46;48;52
46;52;46;46
54;46;48;52
46;46;46;44
50;46;44;47
44;46;46;44
52;46;46;52
46;46;52;48
52;52;52;54
52;52;54;52
60;52;54;60
54;54;62;60
64;60;60;64
60;64;64;64
64;68;64;68
64;64;70;68
68;70;68;68
68;64;68;68
68;70;68;68
68;64;68;68
68;68;64;64
68;64;68;68
64;70;64;64
68;64;66;64
60;64;64;64
62;64;64;64
62;64;62;64
62;60;64;62
60;60;58;56
60;54;60;62
54;54;56;52
56;58;52;54
48;54;54;52
56;52;52;55
52;52;52;52
52;48;52;55
52;46;46;46
52;52;48;52
46;48;52;44
54;52;52;55
52;54;54;48
58;54;54;60
56;60;54;52
60;54;56;60
58;60;56;56
62;60;64;64
60;64;60;60
64;64;64;64
64;68;64;64
68;64;64;64
64;68;64;64
68;64;64;68
68;68;64;64
68;64;64;68
68;68;66;64
68;64;64;68
64;64;64;64
64;64;64;68
60;60;62;64
64;60;60;66
60;60;60;60
60;54;54;62
56;56;55;54
56;52;52;54
52;52;55;48
52;52;46;54
52;52;54;46
52;48;46;54
47;52;52;46
52;47;46;52
52;46;52;46
52;46;46;52
47;48;52;50
52;52;52;55
48;52;54;52
54;54;54;55
54;56;56;54
60;54;54;62
60;64;62;60
68;60;64;64
60;64;66;64
68;64;64;68
60;64;68;64
68;70;68;70
64;64;70;64
70;68;64;68
64;68;70;64
68;68;64;68
64;68;64;64
68;64;64;68
64;64;68;64
68;64;64;66
60;64;60;60
64;60;64;60
56;60;60;56
60;54;56;58
52;56;52;52
54;52;54;55
50;52;46;52
54;46;52;52
54;54;46;50
52;46;52;52
52;55;47;52
54;47;52;52
46;52;46;48
54;52;54;52
50;54;47;52
54;52;52;55
54;52;52;54
60;54;56;60
56;60;56;56
60;56;64;62
60;64;62;64
64;64;64;68
64;64;64;64
68;64;68;70
64;64;64;64
68;64;68;70
64;68;68;64
68;64;64;68
64;64;68;64
68;68;64;68
66;64;64;60
64;68;64;64
68;60;64;62
60;64;60;64
64;56;60;60
60;60;56;56
60;52;60;58
54;60;52;48
55;52;52;52
48;54;52;52
54;52;52;47
46;54;46;48
52;46;47;52
46;52;52;46
54;46;46;47
46;52;54;46
52;50;48;52
48;52;54;50
54;52;46;54
50;52;60;54
54;60;52;60
54;56;58;52
60;60;56;64
60;60;66;60
64;64;60;64
64;64;68;64
68;64;64;68
68;64;68;68
68;68;64;64
70;66;68;68
64;70;68;68
70;68;68;70
68;70;68;68
70;68;68;70
64;68;66;64
68;64;64;68
64;66;68;60
68;60;60;64
62;60;60;56
68;62;56;60
56;60;55;52
58;54;54;60
54;52;54;52
54;52;52;56
52;52;54;52
54;52;46;50
52;52;52;47
52;52;48;52
52;48;52;52
52;54;48;54
52;52;54;52
52;55;54;52
60;52;54;52
54;56;52;54
60;52;56;54
