## File generated by myo_cap software 
## Available from github.com/ddantas/myo_cap 
## Timestamp: 2019-12-26_09-40-53 
##  
## EMG capture settings 
##  
# sampleRate: 2000 
# channelsPerBoard: 4 
# nBoards: 1 
# bitsPerSample: 12 
# ch1;ch2;ch3;ch4
3311;-3900;-3900;3311
182;164;156;137
125;122;110;112
114;109;110;104
105;105;98;96
100;92;96;92
92;92;88;88
89;84;88;84
84;84;82;80
85;80;82;79
80;84;80;80
84;80;82;74
78;82;79;76
79;76;78;76
76;80;72;76
76;68;78;74
76;76;70;70
74;64;73;70
72;72;64;68
74;68;68;68
66;68;64;64
70;62;65;62
60;64;60;60
60;56;60;60
56;60;56;52
56;52;56;56
54;56;52;48
57;49;54;55
49;52;54;52
53;48;52;52
48;52;48;48
52;44;48;48
50;53;48;48
52;48;52;54
49;52;48;48
55;48;52;52
52;54;52;48
57;52;52;53
52;56;54;52
60;52;56;57
60;62;56;58
63;56;64;60
60;64;61;64
68;60;64;66
64;69;64;64
70;64;68;66
68;70;64;65
69;64;64;70
64;70;66;64
71;68;68;69
64;70;69;64
70;69;64;68
60;64;64;60
68;64;64;64
62;64;61;60
63;62;64;64
58;60;61;52
56;56;52;56
56;52;54;52
56;59;52;54
54;48;52;50
52;52;48;52
54;48;52;49
46;52;50;48
53;50;49;54
52;50;53;48
52;48;48;54
54;52;56;52
56;58;52;56
55;52;58;52
57;60;54;56
61;56;60;57
56;60;58;56
60;58;60;66
60;64;68;64
68;66;64;68
66;68;69;64
68;69;64;68
68;68;69;64
64;70;66;68
71;68;68;70
66;68;68;68
72;70;68;72
68;68;70;64
69;68;64;68
64;64;65;60
65;65;60;64
61;60;64;62
60;64;56;56
60;56;60;56
56;60;56;56
60;54;56;58
53;54;54;48
52;52;48;54
53;48;53;48
50;54;48;52
52;52;52;54
48;52;52;48
54;52;48;52
52;52;52;48
54;52;52;52
52;48;54;48
56;52;52;56
49;52;54;48
58;58;52;56
52;56;60;56
60;56;56;60
56;60;62;60
64;60;56;62
60;60;68;64
68;68;66;68
64;68;68;64
70;72;68;69
66;64;70;64
72;70;64;70
68;72;72;68
68;68;68;68
68;64;70;64
68;69;64;64
63;64;60;60
64;64;56;60
56;54;61;57
62;62;57;60
58;56;60;54
60;60;56;56
53;52;58;54
54;56;52;54
55;48;56;52
52;54;48;52
52;50;53;48
52;55;48;52
52;48;52;52
46;54;48;52
53;48;52;55
52;52;52;52
57;52;54;52
52;58;54;52
60;52;56;57
54;60;56;60
63;58;60;61
60;65;60;60
61;60;64;64
64;68;64;64
63;64;72;65
68;71;64;64
68;64;68;68
68;68;64;68
71;64;70;69
72;74;68;68
68;68;70;68
69;70;64;64
70;64;64;64
64;69;64;64
68;64;66;60
64;68;62;60
68;60;64;60
60;60;58;56
60;54;56;56
54;60;56;52
56;52;52;58
52;56;56;52
53;52;48;53
53;53;56;48
54;52;48;54
52;50;53;49
48;52;48;44
53;48;52;50
48;48;52;48
56;52;48;52
48;52;55;52
58;60;56;58
58;57;62;56
60;60;56;64
60;60;66;60
64;68;64;64
65;64;68;64
68;68;64;68
65;64;68;68
66;64;64;64
68;68;70;68
69;70;64;68
65;64;68;64
64;70;68;68
71;64;68;64
68;68;64;64
64;56;64;60
64;68;64;64
65;64;64;60
64;66;60;60
62;56;62;60
60;63;56;58
60;56;60;56
56;62;56;54
56;52;56;54
52;56;52;52
55;52;56;53
52;52;50;48
50;48;52;52
46;52;52;48
53;50;48;54
48;52;52;48
54;52;52;56
52;56;56;52
61;57;56;60
56;60;60;56
60;58;60;62
60;64;64;60
66;64;64;68
68;64;68;64
64;68;64;68
68;64;70;65
68;70;68;68
68;64;70;66
68;71;68;72
70;68;72;69
68;69;64;68
69;68;70;64
65;68;64;70
68;64;68;65
68;68;64;64
64;64;68;60
64;64;56;64
63;60;62;60
60;60;56;64
57;56;61;52
54;52;52;56
52;52;58;52
56;60;54;58
55;52;56;52
52;52;52;52
55;50;56;53
52;52;52;53
55;52;57;52
50;54;52;54
54;52;56;54
54;56;54;56
59;56;60;52
56;60;56;56
60;60;60;60
58;60;56;64
63;60;64;60
60;64;62;64
66;64;68;64
64;70;64;64
68;64;70;68
64;68;68;68
70;66;68;70
66;69;68;64
69;66;68;68
64;68;64;66
68;64;68;68
65;72;68;64
70;64;68;68
64;64;64;64
70;64;64;66
56;60;62;60
65;58;60;62
56;58;60;56
61;57;60;60
55;60;62;56
60;52;52;56
52;56;57;52
57;56;56;54
53;54;52;52
60;52;56;54
53;56;56;52
59;52;56;57
56;56;58;56
60;53;52;56
52;52;56;52
60;56;56;62
52;56;56;56
63;60;62;60
57;60;60;60
68;60;64;64
64;64;65;64
72;68;68;66
64;68;68;64
68;68;68;70
68;70;71;68
69;69;68;70
68;68;70;68
73;72;69;72
68;70;74;68
70;68;68;69
64;64;68;64
68;64;64;68
64;64;66;64
68;63;64;62
61;64;60;60
65;60;60;60
56;64;60;54
60;56;56;54
52;56;58;56
61;55;56;57
52;56;54;52
58;54;54;52
50;56;52;52
56;54;56;54
52;56;54;52
57;52;54;52
50;52;57;54
60;56;56;60
54;60;60;56
63;56;60;61
56;62;60;60
62;60;64;60
60;70;62;64
64;64;68;64
60;65;64;68
68;64;68;64
66;68;66;68
68;68;68;68
68;68;65;70
71;64;70;68
68;70;68;72
69;68;73;68
66;70;64;68
68;64;68;64
64;68;64;68
64;64;68;64
60;64;60;62
64;60;64;62
60;64;61;60
63;61;62;60
52;60;57;56
58;54;57;54
52;58;53;56
56;52;56;55
49;56;52;52
56;50;48;56
52;50;52;52
56;53;52;56
52;52;54;52
52;56;56;52
57;52;56;60
54;56;58;54
60;58;56;60
56;60;60;56
62;66;60;64
64;60;66;64
64;68;62;68
69;68;72;68
64;68;64;68
73;64;68;71
66;68;70;68
69;68;68;69
69;68;72;64
68;71;66;68
68;64;68;69
65;70;68;64
66;64;68;69
66;70;68;64
66;64;64;65
64;64;66;57
61;68;64;68
60;62;60;56
60;60;56;63
58;57;61;53
55;60;52;57
52;52;57;52
49;52;52;56
53;48;52;52
52;52;53;48
56;49;54;52
50;52;54;52
55;53;54;56
52;52;52;52
56;57;52;54
54;52;60;54
56;60;56;60
61;58;63;60
60;68;62;62
65;64;68;65
60;68;65;64
68;64;68;70
64;70;68;64
72;66;68;71
68;68;72;68
70;70;68;74
71;68;76;68
68;70;70;72
74;68;74;68
68;70;68;68
72;66;68;68
65;64;68;60
64;68;62;64
66;64;65;60
60;64;62;60
60;56;62;60
57;60;56;56
57;52;56;60
54;56;57;52
56;54;52;57
52;52;57;48
54;56;54;53
55;48;54;52
48;56;52;52
56;50;53;56
48;48;49;48
52;54;46;52
52;48;56;52
53;56;52;52
55;48;56;58
52;58;54;52
56;56;60;63
58;60;60;58
62;60;60;66
64;64;69;64
68;65;66;70
66;68;73;68
70;68;68;70
68;68;73;68
70;69;70;72
70;68;76;68
68;72;66;72
72;70;74;68
69;72;69;68
68;66;69;68
64;71;68;64
68;64;68;66
61;64;66;64
68;62;62;64
60;60;60;60
65;60;56;60
53;56;56;54
57;61;52;52
52;52;56;53
52;56;48;50
52;48;54;53
50;53;50;52
54;48;48;54
49;52;52;48
52;48;52;53
53;54;54;52
57;58;56;60
56;56;62;56
60;60;60;62
60;56;63;62
60;64;60;64
65;64;68;64
64;64;64;68
69;68;71;68
65;72;68;68
68;64;68;68
64;68;64;64
71;66;68;68
64;68;70;68
73;68;68;70
66;68;70;66
70;70;68;68
68;64;68;64
68;65;64;68
64;64;66;60
66;65;60;64
62;64;66;64
62;64;56;56
61;56;62;60
57;60;56;52
58;59;60;58
56;57;58;56
57;54;56;60
53;58;54;52
60;52;56;57
54;56;60;52
54;54;52;56
53;52;58;52
56;57;54;56
56;54;60;56
56;60;56;56
62;56;60;60
54;58;56;60
63;60;60;62
56;64;63;60
68;64;64;64
64;66;68;64
69;64;64;64
64;68;68;64
70;68;68;68
64;68;72;68
72;69;68;74
64;64;70;64
68;68;64;70
68;68;74;64
68;73;64;68
64;64;68;64
65;73;64;64
64;60;62;60
60;64;60;60
63;57;62;61
58;60;58;56
63;56;56;61
56;56;58;52
56;56;52;58
57;52;57;52
50;52;52;52
52;48;52;54
44;52;48;46
54;52;52;56
50;54;57;54
59;54;52;54
53;54;54;52
60;60;56;57
57;56;60;56
58;61;52;60
56;56;63;60
64;66;60;64
66;64;68;66
64;69;64;68
67;60;70;68
68;72;68;68
68;64;71;68
68;72;68;68
70;68;72;72
70;72;69;68
71;64;72;70
68;72;68;70
70;64;70;68
68;70;64;64
69;64;70;69
64;66;60;60
64;60;68;66
60;64;63;60
68;56;61;60
56;60;54;54
57;52;58;54
52;56;56;56
55;52;52;52
52;54;52;48
55;46;52;52
46;52;52;46
52;52;48;52
52;48;56;48
52;53;52;52
50;48;54;52
48;56;53;54
60;54;56;58
52;56;60;56
60;62;56;61
62;58;68;60
62;65;64;64
64;64;68;64
64;68;64;64
70;64;68;71
64;68;69;64
68;64;68;68
64;68;69;68
68;72;68;73
69;72;72;66
68;68;66;71
70;68;71;64
64;71;64;68
68;64;68;64
64;71;64;64
66;56;64;62
64;64;60;62
66;60;62;60
60;60;60;56
60;56;56;60
52;60;61;56
60;56;56;54
52;56;58;52
57;55;52;57
52;54;56;48
56;55;52;56
48;48;54;52
56;57;52;56
48;52;56;52
56;60;53;58
55;54;63;57
60;60;56;60
60;60;63;56
62;65;60;64
62;60;68;60
64;66;64;68
64;64;70;65
64;71;64;68
68;64;72;64
70;74;70;72
70;68;74;72
72;74;68;70
68;70;73;70
71;72;70;72
70;68;74;68
73;68;64;68
64;64;71;64
68;66;64;68
62;64;65;64
68;60;60;64
62;64;63;60
66;60;60;63
56;64;60;60
63;58;60;60
54;60;56;60
60;56;57;56
54;60;54;56
60;52;56;56
49;58;55;53
58;54;56;56
48;52;56;52
60;54;56;56
54;56;55;54
60;60;60;60
56;60;63;58
61;58;56;60
58;64;63;60
64;60;64;66
60;64;64;66
69;68;68;68
64;66;70;64
68;68;68;74
69;68;73;72
75;68;68;70
66;68;73;68
76;70;68;72
68;69;73;68
73;74;68;70
68;68;72;68
72;73;68;72
68;64;68;66
66;70;64;64
66;64;68;64
64;63;60;64
60;60;64;58
60;63;56;56
57;54;58;56
56;58;56;56
61;52;58;54
52;56;52;52
54;52;53;56
54;54;52;52
58;48;53;53
50;56;52;52
53;54;56;58
52;57;54;54
60;54;57;58
57;64;60;56
56;52;58;62
60;63;63;60
64;60;64;70
64;68;68;64
68;66;68;71
68;72;68;68
72;68;68;70
68;72;71;68
69;64;68;69
68;76;72;68
74;68;74;74
70;72;74;70
72;68;70;74
68;68;70;68
73;68;68;70
68;72;68;64
68;64;64;70
65;68;70;64
68;60;64;68
60;60;60;56
62;56;60;62
57;60;61;54
60;54;57;61
54;58;57;52
57;53;52;56
52;53;55;48
53;49;52;56
52;52;55;52
54;52;52;57
55;56;60;52
60;57;53;60
57;56;62;54
56;56;56;60
58;60;60;56
60;58;60;62
61;60;63;60
64;61;64;64
62;64;66;64
72;64;68;72
68;68;68;64
73;66;70;71
68;76;70;68
72;64;68;74
68;76;70;68
70;64;70;68
68;68;68;68
71;68;74;69
68;70;68;68
68;68;66;64
68;64;64;64
66;64;66;68
64;64;60;64
62;60;64;60
60;68;60;60
65;60;62;61
60;63;56;60
58;52;60;54
54;54;52;56
57;52;58;54
56;60;56;56
52;52;52;52
56;54;52;52
57;48;52;57
52;54;54;52
56;52;52;60
55;56;60;58
60;54;60;63
62;62;62;60
64;60;64;66
60;64;68;64
68;65;66;70
68;65;71;68
68;69;64;73
68;70;74;68
72;70;72;75
72;72;74;68
72;70;68;78
72;70;76;72
74;72;68;76
68;68;74;68
70;72;64;74
69;68;70;68
68;71;64;68
64;64;68;60
64;62;62;64
63;60;62;60
62;63;56;56
60;52;60;54
52;56;52;54
57;52;56;54
49;56;50;54
54;52;58;55
52;52;52;52
59;52;57;56
52;58;56;52
60;52;60;58
48;60;56;56
61;52;57;56
52;56;60;56
61;60;56;60
56;52;63;56
57;60;56;64
63;60;68;62
64;69;64;64
64;64;68;64
64;70;66;64
68;68;68;66
66;68;68;68
71;68;68;69
66;72;71;68
74;70;68;72
68;70;70;68
72;68;68;72
68;68;70;68
68;68;64;71
64;66;69;64
66;65;60;68
65;64;66;60
62;64;60;62
63;60;65;63
60;64;56;64
62;56;61;56
52;60;52;56
61;54;54;60
52;60;56;56
62;52;56;58
54;60;54;52
60;56;56;56
53;60;56;56
62;54;56;61
53;58;60;56
60;52;54;60
56;56;62;52
61;54;57;63
60;60;61;60
63;60;60;64
61;64;69;62
67;66;64;68
64;60;68;64
66;72;64;68
68;68;70;68
70;74;68;72
77;68;76;70
70;72;70;72
73;68;72;72
68;72;70;72
73;70;70;76
68;69;68;68
68;64;66;70
64;68;69;64
68;68;64;69
68;64;70;60
64;64;58;64
62;64;65;56
58;63;54;60
60;56;60;54
53;60;52;56
55;52;56;53
53;57;52;54
58;48;56;52
52;52;48;56
56;48;54;52
48;54;52;54
58;52;56;57
52;56;54;52
60;57;57;58
53;56;60;54
63;54;56;60
56;64;60;60
66;62;60;64
60;64;66;64
68;64;64;68
64;64;70;66
70;70;68;72
69;66;72;69
69;70;68;72
68;68;72;71
69;72;70;70
74;68;68;71
68;72;70;64
69;68;69;73
68;68;71;70
70;69;64;68
65;66;68;64
64;64;60;65
62;60;68;60
60;62;60;60
60;56;60;56
54;60;52;56
59;53;58;54
52;56;54;52
60;52;54;56
52;52;54;48
54;53;52;56
52;52;56;54
56;56;48;56
54;54;56;50
56;56;52;60
57;54;62;58
57;61;58;64
60;56;63;63
60;65;60;64
63;64;68;66
64;64;64;68
68;64;68;70
68;73;68;68
73;68;71;70
70;72;70;70
69;64;68;71
68;72;68;69
70;68;73;72
68;72;68;72
71;64;72;69
66;72;68;68
68;64;68;64
64;68;60;64
64;64;68;64
60;64;60;64
62;60;62;60
60;63;56;60
58;54;61;58
57;57;54;56
60;52;57;56
56;60;54;54
53;53;58;55
53;54;52;52
54;52;52;54
55;62;53;52
54;52;54;55
56;54;52;56
56;52;56;56
53;57;58;52
58;54;60;61
56;62;60;60
62;61;60;63
60;64;64;60
60;60;64;66
64;64;65;64
70;68;69;71
64;68;68;64
70;64;68;68
64;68;69;64
69;68;72;72
68;72;70;68
70;69;72;70
69;70;70;72
72;68;72;68
68;73;68;64
68;64;70;64
65;70;64;68
66;64;64;62
64;64;60;64
60;56;64;56
60;60;56;56
56;52;62;52
56;58;52;56
56;52;60;52
53;56;52;56
50;52;54;52
56;54;52;56
52;54;56;53
53;52;48;54
53;52;54;52
54;56;53;60
55;56;56;57
62;60;56;62
58;60;62;60
62;68;60;66
60;64;68;64
68;68;64;68
68;68;70;65
68;70;66;68
69;64;72;68
68;70;68;72
70;68;72;64
72;72;69;72
69;64;74;71
72;78;68;72
70;69;73;70
72;72;68;72
70;64;72;68
68;68;64;68
68;64;71;66
66;68;64;64
68;60;66;62
60;64;62;64
62;57;62;62
60;62;63;60
62;56;56;58
56;56;58;52
60;53;56;57
56;52;52;52
56;52;54;57
55;56;54;52
54;56;52;56
55;52;60;52
53;58;52;54
59;52;60;56
52;56;53;56
60;54;61;60
56;61;56;57
63;58;64;60
58;62;60;60
68;60;68;68
64;68;64;68
71;64;68;68
64;68;68;70
73;68;70;70
64;72;68;68
73;64;70;70
68;72;69;69
73;68;68;71
64;68;68;68
71;65;65;68
64;68;70;68
74;71;68;70
64;66;69;64
69;68;64;68
66;68;69;64
70;64;64;68
60;64;63;60
60;61;56;62
56;56;60;54
57;61;52;56
52;48;56;50
52;56;52;52
55;52;57;53
54;56;50;56
56;54;56;55
54;56;55;52
54;57;58;60
54;60;60;56
60;58;60;60
56;60;61;60
63;58;60;65
62;68;68;64
66;64;65;71
68;68;71;66
68;72;68;72
68;70;70;68
72;72;70;74
71;74;73;68
68;68;68;76
71;70;72;68
72;70;70;74
68;70;72;68
68;70;66;72
68;70;68;64
66;68;64;70
64;64;68;64
68;66;64;68
64;65;71;64
64;66;60;68
66;64;67;60
60;63;60;62
60;60;60;54
56;60;56;62
60;57;60;56
60;56;54;57
54;56;56;54
56;62;56;56
60;56;61;56
56;54;50;56
58;52;60;54
56;56;54;56
60;54;56;58
58;60;57;60
63;56;62;60
60;62;60;60
68;62;64;68
64;71;68;70
73;64;72;68
64;76;64;69
71;68;69;68
68;71;64;69
70;68;72;70
70;72;68;72
68;68;74;68
70;72;68;72
72;68;72;70
69;69;66;70
71;64;68;64
68;68;62;64
63;64;68;60
64;66;60;68
64;61;66;56
61;63;56;62
61;56;60;56
56;62;57;60
62;52;60;58
60;57;54;56
56;54;57;53
52;57;52;56
54;52;54;52
52;56;52;52
56;48;54;54
52;54;52;56
56;48;56;56
56;57;52;56
58;54;62;60
56;63;57;64
61;56;64;60
60;63;60;65
64;64;69;64
64;68;64;68
70;64;68;64
68;68;68;70
68;66;72;68
69;72;68;70
69;68;76;68
72;72;66;70
68;68;70;68
68;72;68;73
70;70;70;66
68;65;64;68
64;64;68;64
66;64;64;62
65;64;65;60
60;64;60;68
61;64;63;60
62;60;60;62
60;60;61;60
60;52;56;61
60;62;57;56
58;56;56;60
54;57;53;56
60;54;53;57
54;52;54;52
57;52;52;56
52;52;56;52
56;53;52;60
57;56;61;56
58;60;56;62
60;60;62;60
64;65;60;68
63;64;66;64
66;66;65;68
68;64;68;64
68;70;66;70
71;68;71;70
68;72;68;72
70;68;76;68
64;72;68;72
70;68;74;71
74;74;72;72
73;68;72;68
68;70;68;68
71;68;72;68
68;72;64;68
68;64;68;64
64;68;62;68
63;64;64;64
64;68;62;60
61;60;60;58
60;60;57;62
62;60;60;56
56;62;54;60
57;52;58;54
54;58;54;58
60;52;58;56
56;54;54;56
58;52;56;54
56;56;54;56
61;58;62;58
56;67;60;62
63;60;62;60
60;64;60;66
63;64;64;64
66;66;60;68
65;64;70;64
68;68;68;74
69;70;72;68
72;70;64;72
73;70;74;70
74;73;68;76
70;72;76;70
78;73;72;78
72;72;77;70
74;73;73;74
72;72;74;72
76;68;73;70
69;70;65;68
68;68;70;68
68;68;64;68
71;60;68;62
65;68;64;66
65;60;65;56
63;60;58;61
56;56;57;52
58;56;52;60
55;52;54;52
58;55;54;60
53;54;56;52
60;55;52;60
54;56;54;53
59;52;54;61
54;60;54;56
61;56;54;60
52;60;57;60
61;58;62;65
60;62;60;60
63;60;62;60
60;64;60;64
66;64;68;64
64;73;64;69
70;64;70;68
68;74;64;71
70;72;72;70
72;74;68;72
70;72;72;68
74;72;68;70
70;68;72;68
72;70;72;72
69;68;68;64
68;68;64;68
64;64;66;64
65;64;60;66
64;64;64;60
65;61;56;62
60;62;63;60
60;56;56;62
58;60;60;56
56;56;52;57
54;60;60;54
57;48;54;56
52;54;54;48
56;52;52;54
54;54;54;52
54;56;52;58
54;56;54;52
56;58;54;56
56;58;56;60
61;56;60;60
58;64;58;60
62;56;63;60
60;63;60;64
62;56;64;60
64;64;64;68
64;68;68;64
68;68;65;73
68;68;73;64
72;68;68;74
68;68;70;68
72;68;68;71
64;68;69;66
69;68;68;72
66;70;70;66
72;68;68;71
64;64;65;64
68;60;64;68
60;64;66;60
70;61;64;66
60;60;60;56
63;60;60;62
56;60;57;56
61;54;56;60
52;56;55;52
57;60;56;60
56;56;52;52
60;52;54;57
49;54;60;52
55;54;54;58
52;52;53;52
56;53;48;56
53;56;58;56
56;58;56;60
57;60;60;58
60;57;56;62
58;60;64;60
64;63;60;68
64;68;68;64
68;71;64;70
69;70;72;68
74;74;68;73
68;68;71;68
72;76;68;72
68;68;73;66
73;73;68;74
68;74;70;68
73;70;68;74
68;69;70;68
70;68;64;70
67;68;69;64
68;68;64;71
66;64;68;60
66;63;60;68
60;60;62;57
62;60;56;63
53;56;60;52
60;57;54;60
56;56;58;48
56;56;48;57
52;52;58;52
53;55;52;56
52;52;54;52
55;53;49;54
52;52;58;52
54;52;52;53
58;52;54;54
60;58;52;60
56;56;60;56
60;62;58;64
62;60;64;58
65;63;60;66
62;64;70;64
72;70;68;70
68;68;70;64
70;68;68;73
68;70;71;66
76;68;68;74
68;72;70;69
72;66;68;68
65;70;68;64
69;64;68;71
68;72;68;64
70;64;68;68
64;69;64;64
68;64;65;64
64;61;60;60
63;52;60;60
56;60;58;56
60;56;60;57
54;60;54;58
60;52;58;54
52;60;53;60
60;52;58;54
56;60;56;58
56;56;60;53
56;60;52;60
56;54;61;56
60;63;60;60
62;60;63;60
61;63;56;63
62;62;66;62
64;64;60;64
64;60;64;64
66;68;64;68
65;64;69;68
70;69;64;70
69;68;71;66
72;73;68;76
71;68;74;68
70;69;68;69
69;68;70;70
72;74;68;70
71;69;72;64
72;72;68;70
69;64;68;66
66;69;64;68
68;64;66;64
64;70;64;62
63;60;64;61
60;62;58;60
63;60;64;60
60;62;56;58
60;56;61;56
56;60;54;58
60;52;56;56
54;57;52;56
57;52;56;57
54;60;56;54
58;52;56;56
54;56;52;52
60;56;56;60
56;60;56;58
63;56;60;62
58;62;61;60
68;60;60;64
60;62;64;64
68;65;66;70
64;70;66;68
72;64;69;71
68;72;68;68
71;68;69;68
68;70;68;69
73;64;72;70
68;71;68;70
70;68;72;72
74;74;70;72
75;69;72;72
72;74;68;68
71;68;70;65
66;68;66;68
68;64;68;64
66;66;64;64
64;60;62;60
64;60;56;60
62;60;63;60
60;61;56;61
58;58;60;56
60;58;56;60
53;56;54;52
57;56;52;54
54;56;56;56
53;52;52;56
52;52;54;48
58;56;56;56
54;57;57;56
60;56;60;60
56;60;60;56
63;56;60;62
60;60;60;60
67;60;64;68
68;66;66;64
69;66;68;68
66;70;68;68
68;64;68;72
68;72;69;68
72;68;72;69
68;70;68;72
74;68;72;70
70;76;70;68
72;64;70;68
68;74;64;68
72;64;70;68
68;70;64;65
66;64;68;62
61;64;60;64
67;60;62;60
64;66;60;56
63;57;62;60
56;60;56;56
60;52;60;58
56;57;56;52
60;56;60;58
57;58;56;52
61;56;54;60
56;57;54;52
56;60;56;56
56;60;60;54
56;61;58;61
60;56;62;60
64;63;60;62
60;60;65;60
64;65;60;64
63;64;67;64
68;64;64;68
68;68;71;64
70;72;68;72
68;68;70;70
72;69;68;72
70;72;73;68
72;68;68;70
70;68;69;68
72;68;68;70
68;68;72;64
69;72;68;68
68;68;70;66
71;65;66;68
66;64;68;64
66;64;64;68
66;60;65;62
65;60;60;64
57;60;63;56
60;63;56;60
55;56;56;53
57;60;52;56
52;56;56;52
58;54;53;55
53;54;55;52
53;53;52;54
54;52;56;56
56;56;52;56
56;54;60;60
56;56;54;60
60;60;60;56
60;63;56;60
56;56;60;60
64;66;64;62
60;60;64;64
66;68;64;70
64;64;66;64
72;66;68;70
68;70;68;68
72;68;69;74
71;73;68;68
76;72;76;72
72;76;70;72
74;68;76;72
72;76;73;68
76;69;73;70
70;72;70;70
71;68;68;68
66;68;66;64
68;64;64;64
62;64;62;60
66;61;62;66
60;62;61;60
62;60;56;60
56;60;60;56
60;61;52;58
55;60;60;56
56;52;52;58
55;56;56;54
54;54;52;56
54;52;58;53
54;58;54;56
60;56;58;60
56;60;52;56
62;56;56;60
60;67;60;62
65;62;64;62
60;68;65;64
69;64;64;68
64;69;68;64
68;64;70;68
68;70;65;64
68;64;68;68
68;70;68;69
71;68;72;69
70;74;68;70
68;68;70;68
69;68;64;68
66;64;68;64
68;66;64;64
62;64;67;64
65;60;60;64
61;64;62;60
60;56;60;60
56;60;57;60
61;52;56;56
52;56;54;56
58;52;52;52
53;57;52;52
55;48;54;52
52;55;49;48
53;48;52;52
48;54;47;52
55;48;52;54
52;56;53;56
56;52;56;54
56;56;54;56
60;52;60;60
58;62;57;60
62;60;65;60
62;65;60;64
68;60;68;62
64;66;64;72
68;65;71;64
69;70;64;76
68;68;73;68
72;70;68;72
68;72;73;70
76;70;72;77
70;70;72;68
74;71;68;72
68;72;68;64
71;68;65;70
64;68;64;66
70;64;64;68
64;68;64;60
64;61;60;62
60;62;60;56
63;58;60;58
56;60;56;56
60;58;56;60
54;56;56;54
56;52;56;53
52;60;52;54
55;52;57;52
54;57;52;52
54;53;54;52
57;58;54;56
56;58;60;52
58;62;60;60
62;60;60;60
60;66;61;60
63;56;62;60
60;64;60;60
63;60;64;64
64;68;64;64
66;64;68;65
68;71;68;68
69;64;68;66
68;70;68;68
70;68;68;68
70;74;70;70
71;68;74;76
72;72;68;70
76;68;72;73
72;74;71;68
72;64;68;71
65;68;64;64
68;62;64;64
64;66;64;60
64;60;62;63
60;62;57;58
62;56;60;60
56;60;60;56
60;52;56;60
56;56;52;56
59;53;52;56
54;56;52;50
58;53;52;56
52;56;52;48
58;49;48;56
52;60;56;54
59;56;56;60
56;60;61;54
62;56;56;63
60;56;62;56
65;63;61;64
60;64;65;60
68;64;64;70
69;68;71;64
70;68;64;72
71;69;77;68
74;66;64;72
72;72;74;68
74;64;68;78
68;70;72;68
72;68;68;72
71;72;72;68
73;77;64;72
70;64;73;66
68;68;64;66
68;64;69;64
64;64;60;64
68;56;60;56
60;61;56;60
60;56;62;55
52;58;53;60
56;52;60;52
54;57;48;56
55;53;60;52
54;56;48;54
56;52;54;52
54;56;52;56
54;52;60;52
54;60;52;60
55;56;62;53
60;60;56;60
60;60;66;60
62;63;56;64
62;64;62;60
66;68;60;64
65;64;70;60
68;68;64;73
68;68;70;64
72;68;65;73
71;68;76;68
72;72;64;72
70;68;72;68
71;73;64;72
73;68;72;68
68;71;66;69
70;68;72;68
69;72;64;68
71;68;68;64
66;68;64;66
70;64;64;64
65;68;62;64
68;60;64;63
60;64;60;60
60;56;60;62
56;60;54;54
60;52;56;56
52;58;56;52
56;52;52;54
52;52;54;52
60;54;52;56
52;52;53;52
56;54;53;55
49;53;56;54
61;60;58;60
54;60;56;53
58;60;58;60
55;60;60;56
62;60;60;62
60;56;65;64
64;65;64;64
65;66;69;64
68;72;64;68
66;64;69;64
68;70;64;68
69;66;68;64
68;71;64;68
68;64;72;68
68;70;68;68
68;64;68;69
68;71;68;68
71;64;66;64
64;66;62;64
68;64;68;66
64;69;64;64
63;56;64;62
60;64;60;56
61;56;58;58
56;60;56;52
58;56;56;58
56;56;52;52
58;52;56;56
54;56;55;48
54;52;52;58
53;56;52;48
54;48;52;55
48;56;54;52
57;52;52;56
55;56;56;52
60;56;52;61
60;60;63;60
64;60;58;68
60;60;66;58
68;68;64;68
64;68;72;64
70;68;68;70
69;72;70;68
73;70;68;76
73;72;71;64
74;68;66;76
74;73;76;68
72;72;68;72
74;72;76;70
70;76;64;68
70;64;69;64
71;72;64;68
68;64;68;64
64;69;62;60
66;60;62;62
60;64;61;56
60;58;56;58
60;56;56;54
60;56;52;56
55;56;60;52
58;56;54;56
54;52;56;52
52;58;54;54
57;50;52;52
54;55;52;53
56;52;56;54
52;61;52;52
58;54;56;60
58;60;56;56
62;56;60;63
60;60;60;60
68;62;64;65
60;68;68;64
68;65;64;68
64;64;65;64
70;66;66;69
68;72;74;69
70;64;68;72
68;72;76;68
76;68;68;76
70;72;72;64
76;70;68;71
68;69;68;64
70;66;68;70
69;70;66;64
68;64;64;64
64;68;60;60
60;61;62;58
64;63;60;61
61;60;62;56
61;56;52;58
58;60;54;52
60;52;58;53
52;58;53;52
60;52;60;55
54;56;52;56
58;52;58;54
56;57;52;56
60;52;56;56
56;60;54;56
62;60;63;57
60;60;60;60
63;56;60;60
60;66;57;61
67;60;65;63
64;64;64;64
71;68;64;70
65;68;65;64
72;69;69;66
64;68;66;64
73;70;72;70
68;70;70;68
76;68;72;69
68;72;70;68
71;71;68;68
70;70;68;65
72;68;64;68
64;64;64;64
70;60;64;64
60;66;62;61
66;60;64;62
62;64;56;56
63;56;60;56
56;56;54;56
60;52;60;54
56;60;54;60
61;54;58;52
56;60;54;60
61;56;58;52
54;56;53;52
60;49;52;52
52;52;54;52
62;52;54;56
52;54;58;54
60;57;56;56
58;60;58;56
63;62;61;62
60;64;62;60
66;64;64;64
60;64;64;60
68;69;68;68
68;64;69;66
68;71;64;68
68;64;69;65
70;72;68;72
68;68;72;68
69;72;66;68
69;68;68;69
68;68;64;68
68;66;68;65
70;68;64;65
65;64;65;60
68;64;64;64
60;64;62;60
62;60;57;62
58;58;60;56
63;56;52;56
52;54;56;54
60;56;54;58
52;56;54;52
60;56;53;55
48;54;52;52
55;52;53;54
52;54;48;52
59;54;54;54
52;56;54;56
61;52;54;56
53;56;53;52
62;54;57;57
56;60;56;60
63;58;60;61
60;64;60;64
71;66;68;65
64;68;68;64
76;68;68;69
68;74;64;68
76;70;70;72
68;74;68;70
74;68;68;72
68;70;71;68
76;69;69;69
69;68;70;68
72;69;68;70
68;68;68;64
70;68;68;68
64;66;65;64
66;68;64;68
65;64;63;60
68;68;64;62
57;60;58;56
63;56;60;62
56;56;60;56
62;61;58;56
52;60;58;53
58;56;54;56
54;56;57;52
56;56;52;56
54;56;56;52
60;60;52;58
55;56;58;56
60;60;56;58
60;56;60;60
60;62;56;62
63;60;64;60
64;64;64;64
67;64;65;64
66;68;64;64
68;64;70;66
68;70;68;68
69;68;70;68
68;70;64;68
70;68;68;68
69;74;68;68
70;68;68;70
72;74;64;70
69;64;68;68
68;70;64;64
68;60;68;64
64;64;60;64
63;60;62;61
64;65;61;60
62;56;60;58
60;60;56;56
58;52;56;56
54;58;52;54
55;52;57;54
52;56;50;54
58;52;54;50
54;56;52;53
54;52;52;53
54;56;52;54
56;57;56;53
56;58;54;58
57;52;60;58
57;60;54;61
60;56;60;56
64;66;60;64
63;60;64;60
66;68;60;64
65;64;65;64
68;68;64;64
65;66;68;68
68;70;64;70
70;64;68;68
72;70;68;73
68;68;68;72
74;71;69;71
68;72;71;68
76;70;68;70
64;64;64;64
70;60;64;64
64;68;64;64
71;64;60;64
64;66;60;64
71;60;64;60
60;64;56;64
63;57;60;56
58;62;56;60
60;56;58;58
58;61;52;56
61;54;60;56
56;60;53;56
57;56;60;52
56;60;48;56
57;52;58;52
56;56;52;56
55;54;58;52
57;56;52;60
59;56;62;56
60;60;56;66
60;60;62;56
64;60;56;66
64;68;62;64
71;64;68;68
68;71;64;68
71;64;70;68
70;73;68;71
69;68;70;68
74;72;70;70
69;68;68;68
73;71;72;68
65;68;68;68
70;68;66;68
68;69;64;64
70;64;64;68
60;66;61;64
69;60;64;64
58;64;60;64
63;60;60;58
56;57;52;56
60;52;56;52
54;58;52;56
60;52;54;52
49;56;52;52
58;54;52;55
52;52;52;52
60;52;53;54
52;56;52;52
57;54;52;57
52;60;60;56
63;58;56;56
56;60;56;60
62;56;60;60
56;62;60;60
66;60;64;62
62;68;62;68
69;68;68;71
64;72;70;72
76;68;72;70
68;69;70;72
77;72;68;76
68;68;72;72
74;72;68;73
69;72;72;68
72;70;64;72
68;68;70;64
72;68;68;68
64;68;69;64
68;66;64;66
61;64;68;64
70;62;64;64
60;60;62;60
64;58;54;58
52;60;54;56
60;57;56;56
57;56;56;56
61;56;56;53
53;56;54;52
57;49;52;52
48;48;53;52
56;52;52;54
54;54;52;52
58;56;56;56
50;52;52;52
61;56;56;54
53;56;54;56
62;57;56;60
58;62;60;60
66;56;60;60
60;64;61;64
68;64;64;66
64;68;60;66
69;65;68;68
68;71;68;68
74;68;74;68
69;71;68;72
70;68;72;71
70;70;68;70
71;64;68;68
68;70;64;72
73;64;70;64
66;70;64;68
68;64;68;62
64;64;60;64
61;60;64;60
64;62;56;64
62;60;60;52
56;56;52;60
54;52;58;52
58;60;52;63
56;54;60;54
60;56;52;60
52;52;55;48
54;56;52;60
58;52;58;52
56;58;52;60
57;56;62;52
60;58;56;62
60;60;62;56
63;58;60;68
60;64;62;60
64;56;62;68
64;68;70;64
68;64;68;68
66;68;70;68
70;69;68;70
70;74;68;68
71;64;68;73
64;72;66;68
69;64;68;68
73;70;68;70
69;68;70;65
69;71;64;68
66;64;68;66
72;68;66;68
64;68;66;64
68;64;64;64
60;64;58;64
66;64;60;60
60;62;54;58
63;56;60;52
56;60;52;60
62;57;60;52
56;54;52;58
56;52;57;52
57;54;49;58
56;52;55;48
52;54;48;56
55;54;58;52
54;50;52;56
56;56;60;52
60;52;52;61
56;60;60;56
61;60;56;63
58;64;62;60
68;61;64;66
64;68;68;64
72;66;70;69
68;72;68;68
72;64;70;68
70;70;64;68
70;64;68;64
69;70;64;68
64;64;68;68
70;72;68;70
68;70;68;68
72;72;64;68
66;64;68;64
68;64;64;66
61;64;60;62
68;64;64;62
58;60;63;60
63;62;60;62
57;56;56;56
60;60;56;58
58;56;56;56
56;56;52;56
53;54;52;52
58;58;48;54
49;54;52;52
54;52;48;52
52;54;53;54
57;56;52;56
54;56;56;56
56;60;50;58
60;52;60;61
61;63;54;60
61;56;61;63
62;64;62;60
64;60;64;68
65;71;64;64
68;64;68;68
70;68;64;70
71;64;70;68
72;76;68;72
76;68;73;66
70;68;65;73
69;64;72;68
70;72;68;68
68;64;70;64
68;66;60;68
64;65;68;60
68;62;60;64
62;64;65;60
68;60;60;63
60;64;63;56
63;52;52;56
52;56;52;52
61;48;53;53
52;52;48;48
53;48;54;54
52;54;49;52
55;48;52;52
52;54;48;52
55;52;56;52
52;56;54;52
56;52;54;56
56;58;56;56
62;56;60;60
62;65;60;60
64;56;64;60
60;65;60;64
70;64;68;64
66;68;64;64
68;64;68;68
68;68;68;69
71;68;72;70
70;71;66;70
76;68;72;68
69;72;68;68
69;64;66;64
69;70;68;70
69;64;70;64
68;66;64;66
65;64;68;64
68;64;60;65
64;64;65;62
68;64;60;64
60;62;61;56
62;60;58;58
57;56;56;56
62;60;56;60
57;56;60;58
61;57;54;60
56;58;61;56
61;52;52;57
55;52;54;52
56;54;54;57
54;52;60;52
56;60;56;60
62;60;63;58
60;66;56;64
64;60;66;60
69;61;60;64
64;64;68;60
68;65;64;68
68;64;68;64
68;71;64;68
68;68;68;64
69;68;64;68
70;68;68;64
70;68;68;72
70;72;68;68
72;68;68;71
70;73;68;68
76;68;70;68
68;73;64;64
74;64;66;66
68;68;65;64
66;60;64;64
66;68;60;64
65;60;64;60
61;63;60;62
61;60;62;56
64;63;56;63
60;58;57;52
60;60;52;60
56;54;60;52
61;60;53;58
56;56;57;52
60;54;52;57
54;52;54;52
58;55;52;58
57;56;62;54
60;61;56;62
62;56;63;58
64;66;60;64
66;64;68;64
68;64;64;68
73;64;68;64
68;70;68;68
77;68;72;71
72;76;72;72
75;72;72;76
72;76;72;70
76;72;72;74
70;72;73;68
76;74;68;72
76;69;72;68
72;74;70;72
73;68;71;68
68;71;66;69
72;64;68;64
62;69;62;64
69;60;60;60
60;62;60;56
66;56;60;60
58;60;54;56
63;57;56;58
54;60;58;52
62;58;56;58
53;56;54;52
58;48;52;60
52;56;56;52
60;54;52;57
55;56;58;52
58;60;52;60
54;56;63;57
63;63;54;60
60;60;64;60
60;64;60;60
63;60;60;60
64;64;64;64
68;64;68;64
70;72;68;69
73;69;72;70
72;74;68;68
76;71;68;74
68;68;70;68
72;72;70;74
76;68;76;70
71;72;64;72
71;68;70;68
68;70;64;68
70;66;69;68
64;68;64;64
66;64;64;64
66;68;56;64
68;60;60;57
60;63;56;56
62;52;56;54
54;62;57;56
61;52;56;56
52;56;53;52
60;52;56;52
53;56;53;52
60;53;52;54
52;56;54;52
58;52;54;60
55;56;57;52
60;56;56;63
58;60;56;56
62;56;60;62
61;62;60;56
68;60;64;66
64;68;65;64
73;64;69;69
64;70;67;68
72;68;68;71
68;72;72;68
76;68;72;72
68;72;72;68
75;68;70;69
66;70;69;68
74;64;72;70
68;68;68;68
74;68;68;68
64;68;68;64
71;64;64;68
64;68;65;60
70;60;64;63
60;66;60;60
68;62;60;62
58;62;57;56
62;56;60;56
56;60;56;56
60;52;56;54
54;60;56;52
61;54;56;57
54;56;53;52
60;54;52;58
52;56;54;52
62;54;56;56
56;60;60;56
62;56;60;60
56;60;60;56
65;60;60;63
60;66;63;60
68;60;68;65
64;68;68;64
72;68;64;70
64;68;69;64
72;64;72;71
68;72;68;66
77;71;74;74
72;72;68;72
74;64;76;71
68;72;70;68
76;72;68;68
68;69;68;64
71;65;65;68
64;68;62;64
68;61;62;64
60;60;60;56
63;60;60;60
60;63;56;52
61;52;56;56
56;56;56;56
58;54;56;53
56;60;52;56
60;52;56;52
54;60;48;52
57;52;56;52
55;55;52;52
57;54;60;56
57;55;52;56
59;56;60;56
60;60;56;60
60;54;62;56
62;60;60;64
65;64;62;60
64;60;64;66
64;66;65;66
70;66;68;69
68;72;71;68
74;68;72;70
72;68;70;68
74;66;72;70
70;76;68;68
76;72;72;70
72;72;70;68
74;68;72;69
66;70;66;66
73;68;68;64
68;70;69;70
74;65;68;64
68;64;64;60
64;60;60;62
62;64;60;56
65;60;56;60
54;56;56;52
56;52;48;52
53;52;56;48
56;56;48;53
53;54;55;47
55;54;53;52
58;52;54;52
56;56;52;52
59;50;52;52
52;60;56;52
60;57;56;60
56;60;61;56
61;56;56;60
56;60;56;56
66;60;60;64
61;64;68;64
68;64;64;68
66;68;70;64
71;71;68;72
68;65;72;65
70;71;68;72
71;68;72;66
72;72;70;70
71;68;70;68
70;72;66;70
72;68;70;64
66;68;68;68
68;60;64;64
68;68;62;65
68;64;68;64
65;62;60;62
64;60;56;60
58;60;60;56
61;56;56;54
54;56;54;56
60;54;60;54
56;56;53;52
54;52;52;52
54;52;52;48
56;52;50;54
54;58;53;52
57;56;56;58
58;54;58;52
60;56;52;60
63;56;62;56
63;57;52;57
58;56;61;56
64;60;56;65
63;64;64;61
68;66;64;66
64;68;68;66
70;68;68;72
71;72;72;68
77;68;70;70
71;72;70;70
76;68;72;74
70;72;71;68
72;69;68;72
68;72;72;68
70;64;70;68
70;74;68;66
71;64;66;64
64;68;64;64
68;62;60;64
61;62;63;56
63;58;56;56
58;60;56;56
62;56;56;54
56;60;52;52
61;57;52;58
56;60;58;52
61;52;52;54
54;56;54;52
57;55;48;53
54;52;57;54
56;57;52;56
61;56;60;60
61;63;57;60
63;56;60;60
58;66;60;58
68;63;68;66
62;64;62;60
70;64;66;73
68;65;70;64
72;70;64;68
68;68;70;64
70;68;68;70
71;68;69;68
68;72;68;70
69;64;72;64
70;71;68;68
71;64;70;64
70;71;64;72
69;64;68;64
68;69;64;65
68;64;64;60
64;64;60;60
65;56;62;56
60;63;60;61
60;56;60;54
57;56;52;56
58;56;54;48
56;54;48;56
52;52;58;52
58;52;52;52
50;52;54;48
58;53;53;57
54;52;58;48
60;52;52;58
55;61;54;52
63;56;56;60
56;58;56;53
62;57;56;62
58;64;64;56
66;57;64;63
64;64;68;60
73;64;66;68
66;72;69;68
77;64;68;72
68;69;68;68
73;70;70;70
70;68;68;68
74;68;72;70
69;72;68;68
76;68;68;64
69;68;66;68
70;68;70;68
64;69;64;64
68;61;68;60
68;68;64;62
69;64;64;60
60;64;60;64
63;52;64;55
62;60;53;56
61;52;60;54
60;57;52;54
58;52;57;54
56;58;48;54
60;52;57;53
52;58;52;54
61;52;56;57
54;56;56;52
60;53;57;60
56;60;56;60
63;61;60;60
60;61;63;56
66;60;62;64
62;66;62;64
71;64;68;69
66;68;64;68
74;64;68;68
68;69;68;68
72;68;68;68
70;70;68;68
74;70;68;72
68;72;64;64
73;68;68;73
68;70;72;64
72;65;66;73
64;68;66;64
70;64;64;66
64;64;64;60
68;64;64;64
60;64;62;56
67;63;60;63
60;60;56;52
62;57;52;56
52;56;54;52
56;54;52;56
54;56;56;48
60;53;53;58
55;55;54;52
58;54;56;56
55;52;56;52
58;52;52;57
55;53;60;52
58;60;52;58
60;56;60;57
60;63;56;62
63;56;64;60
65;66;56;64
60;60;64;60
68;64;64;69
66;64;68;64
71;68;68;72
68;68;70;64
73;69;68;74
71;72;70;70
76;68;70;76
71;70;72;68
79;68;70;76
68;70;71;68
76;68;70;69
65;68;65;64
71;65;64;68
64;69;64;64
69;62;62;66
65;66;65;64
71;64;64;62
61;61;56;56
63;56;60;56
56;60;52;52
63;52;52;54
53;56;54;52
60;52;52;56
52;56;52;52
60;56;52;56
52;52;56;48
57;58;52;56
56;52;60;56
61;61;52;60
60;56;62;56
66;60;56;64
61;60;62;60
64;63;64;64
64;64;68;60
70;70;68;71
68;72;70;64
76;68;72;76
68;74;70;72
77;64;70;71
68;70;68;68
77;68;69;72
66;72;72;68
74;68;69;70
68;68;68;68
71;68;68;64
66;71;66;68
71;60;68;64
68;65;64;64
66;64;62;60
64;60;60;60
57;56;56;52
61;54;56;58
56;60;54;56
58;52;56;54
56;56;50;52
55;52;56;52
54;52;52;52
56;52;57;50
54;57;48;52
52;48;56;52
57;56;52;56
53;54;56;52
61;57;52;63
60;60;60;52
62;60;58;68
58;56;64;56
68;60;60;66
60;64;67;64
71;64;68;68
68;70;64;68
74;66;70;74
71;72;68;68
76;66;68;74
72;74;65;64
73;68;72;70
70;72;69;68
74;66;68;71
68;70;66;64
71;64;64;68
64;64;64;60
69;64;60;63
60;64;60;60
66;60;60;60
60;60;63;54
61;60;56;63
56;56;55;54
60;54;52;60
52;52;55;52
58;52;52;56
49;52;52;48
56;54;52;54
52;52;56;52
58;54;48;60
57;54;54;52
61;60;54;60
60;58;64;56
65;57;56;60
60;56;62;60
62;60;60;65
65;64;68;62
70;68;64;70
64;68;73;68
73;68;68;70
68;68;73;68
75;70;72;72
68;76;72;68
75;68;70;74
70;74;72;68
78;70;72;74
68;72;68;68
78;68;68;70
66;68;64;64
73;64;64;68
64;68;61;60
69;60;64;62
60;60;60;57
63;60;60;60
60;60;56;58
63;56;60;56
56;63;56;56
62;52;60;52
56;56;54;56
53;48;56;52
56;63;52;56
60;52;60;53
56;54;54;56
60;56;56;56
60;56;52;54
58;52;58;58
60;62;56;56
60;56;62;60
62;63;56;65
63;64;66;62
66;65;64;68
69;64;72;66
71;69;64;70
69;66;72;68
70;72;68;72
71;72;73;65
70;69;68;72
73;64;76;66
76;72;68;73
68;68;74;68
73;69;68;70
70;72;68;64
72;64;68;70
64;68;68;64
70;64;64;68
68;64;65;64
68;62;60;64
62;56;61;57
60;52;52;57
56;52;60;52
60;53;52;52
52;54;56;52
57;56;52;54
56;52;52;52
57;52;52;52
57;52;54;52
54;52;52;56
57;52;57;52
60;61;52;60
58;58;60;60
60;60;56;62
60;56;62;60
68;66;60;68
65;66;68;64
70;68;64;70
68;68;68;64
69;64;68;70
66;70;70;68
72;68;68;72
70;70;70;68
77;68;72;68
68;74;68;68
72;64;74;69
68;72;68;68
69;68;68;66
64;64;64;64
63;64;64;60
68;68;60;68
60;62;66;60
63;62;60;64
60;60;60;56
63;57;52;56
54;52;52;52
61;54;52;58
52;54;52;52
60;48;56;48
48;54;54;52
58;48;52;48
52;56;52;52
58;52;61;56
56;60;52;56
57;56;56;52
56;60;54;56
63;56;60;60
62;63;58;64
67;60;68;60
65;68;60;64
66;64;65;64
68;68;64;66
68;68;68;64
68;71;64;68
71;64;72;68
72;73;68;70
68;68;72;70
70;68;68;70
70;64;68;64
68;68;66;68
65;64;70;60
68;68;64;66
67;64;68;62
66;68;64;64
63;64;63;58
66;62;60;62
62;60;58;56
63;62;56;58
56;56;58;52
56;54;54;60
55;54;55;52
55;52;52;57
55;56;52;52
56;54;54;56
54;52;55;52
57;55;54;56
50;56;53;52
56;52;52;61
55;54;56;54
56;56;52;56
57;56;60;56
60;60;56;62
63;60;68;60
68;65;66;66
64;64;69;60
68;69;64;68
69;65;69;64
68;71;64;74
69;66;72;64
70;69;68;70
68;70;69;69
68;68;68;68
71;68;72;68
73;65;64;68
68;66;66;64
68;64;64;66
68;65;65;64
66;64;64;62
61;64;60;60
63;60;56;60
60;60;60;56
58;61;54;60
60;56;60;52
63;54;56;56
54;56;54;54
57;48;52;53
50;52;48;52
58;54;52;54
52;52;55;52
56;52;52;58
57;57;56;54
60;54;56;60
59;56;60;56
61;60;57;60
57;60;60;60
66;62;60;64
62;65;64;64
69;68;64;68
68;68;68;64
72;65;64;70
69;68;68;64
73;68;68;72
68;68;71;68
76;68;68;70
68;72;73;64
72;71;68;74
70;70;70;66
68;68;68;69
68;64;71;60
68;69;64;68
68;64;66;60
66;64;62;64
61;56;64;56
60;61;54;60
63;52;61;52
60;56;52;56
61;52;54;54
54;56;52;54
58;52;56;53
56;57;52;56
54;50;56;52
56;54;48;56
53;52;56;52
56;52;52;54
55;58;57;57
60;56;56;61
57;56;60;54
62;60;56;62
61;64;63;60
64;60;60;66
61;64;66;64
71;64;68;68
68;71;64;64
71;64;68;66
69;73;65;69
72;68;74;68
68;70;68;69
71;64;70;64
68;70;64;70
70;64;72;64
68;68;64;68
65;64;66;60
70;64;60;65
66;64;68;60
65;64;60;63
60;60;60;60
63;60;60;60
58;60;60;56
63;54;56;57
53;56;55;52
57;50;56;59
53;52;53;48
58;48;52;54
52;54;52;52
60;49;52;54
54;56;55;50
60;52;54;56
58;56;56;56
63;52;56;60
56;60;56;56
63;56;60;58
58;60;62;60
63;61;66;66
65;68;66;64
74;66;68;71
66;70;68;70
75;68;72;75
68;72;64;68
73;64;68;72
68;70;69;64
73;68;70;70
68;68;73;68
71;65;68;70
68;68;68;64
70;64;68;66
64;64;66;64
65;66;64;66
62;64;68;56
63;60;60;61
61;60;64;56
61;61;56;60
60;53;62;52
60;53;54;56
58;52;60;52
53;60;52;52
58;52;56;52
55;52;48;48
58;52;54;52
52;56;52;52
58;54;52;57
54;56;56;52
60;52;56;60
56;60;61;52
62;60;56;60
63;62;64;62
60;64;64;64
65;56;64;65
64;64;64;64
70;60;64;68
68;64;70;64
70;73;68;72
71;64;72;69
69;68;68;68
70;68;68;74
71;68;72;68
72;68;64;70
71;64;68;65
68;68;68;64
66;65;64;64
64;68;69;60
66;62;60;64
60;60;65;56
60;63;56;62
62;57;60;58
56;58;56;56
62;52;58;57
52;61;55;52
56;53;52;58
53;52;54;48
56;52;52;54
54;48;55;48
54;56;52;54
52;54;57;54
52;56;52;56
58;52;56;56
54;60;58;56
63;56;58;60
56;62;60;57
63;60;60;68
64;64;64;64
71;68;64;71
65;66;68;64
66;68;64;68
64;68;72;64
68;70;68;68
70;68;74;68
68;74;65;70
69;64;68;68
68;68;69;65
70;64;68;69
64;64;64;64
69;60;64;64
64;64;68;60
67;66;64;68
64;62;65;60
64;64;60;64
61;60;60;58
62;63;56;60
60;52;61;54
56;56;52;58
59;52;60;54
54;56;56;52
58;54;54;58
52;56;52;48
55;52;52;54
53;52;55;52
54;55;52;58
52;52;56;54
56;56;56;56
63;56;60;60
56;60;56;56
63;56;64;63
64;66;62;64
68;66;64;68
64;68;69;64
68;70;64;69
69;64;68;64
66;71;64;69
71;68;71;69
69;70;68;68
75;68;69;73
64;70;64;64
69;68;69;70
64;70;70;64
70;60;68;65
62;68;62;64
67;56;65;65
60;64;57;60
62;57;56;60
56;60;56;52
59;56;56;58
52;52;56;49
56;52;52;54
49;52;52;48
56;54;50;54
53;52;52;52
54;53;48;55
53;48;52;48
50;52;48;52
52;44;52;52
52;58;48;56
55;52;57;54
55;54;54;56
63;56;62;56
58;60;61;64
65;58;64;63
62;68;62;64
70;62;68;68
68;70;70;64
73;68;68;72
70;68;68;68
70;70;68;76
69;70;72;66
72;72;64;72
68;68;73;66
73;72;64;72
71;68;72;68
68;68;64;68
68;64;68;64
64;68;64;64
68;64;68;62
64;68;58;65
63;64;60;60
60;61;52;60
61;52;60;52
54;56;52;56
60;52;56;57
52;56;52;52
58;52;56;57
52;55;53;48
55;56;52;56
48;52;52;52
54;48;52;52
52;48;52;52
56;54;52;56
57;52;56;56
60;58;56;57
57;56;60;56
58;63;60;64
60;60;66;62
64;66;64;64
69;68;70;64
64;70;64;68
70;64;68;68
66;70;68;68
76;68;68;69
66;68;68;72
73;68;70;76
65;68;68;68
74;64;68;70
65;68;64;65
70;60;64;66
64;68;62;64
71;60;65;62
60;64;61;60
63;58;56;62
57;60;56;52
56;56;56;56
54;56;48;52
56;57;56;56
52;52;52;52
52;48;52;52
49;52;56;52
53;54;52;58
52;52;57;48
56;55;53;52
55;50;52;52
54;60;52;56
57;52;60;56
57;60;57;60
61;56;60;56
57;62;60;62
68;60;64;64
64;69;60;64
69;64;68;66
68;70;64;65
74;68;70;69
68;74;68;68
74;72;72;72
70;72;73;69
71;64;68;70
68;68;74;64
68;66;65;68
68;64;68;60
68;68;64;60
64;60;68;68
61;66;62;60
68;60;62;63
64;64;62;58
62;58;56;60
58;56;60;52
60;56;52;56
52;54;57;52
52;56;52;52
54;52;56;56
50;54;52;52
55;52;52;54
48;52;52;50
54;52;48;54
50;48;58;55
56;56;54;57
58;54;58;54
52;56;54;56
60;52;56;56
56;57;60;54
62;62;64;61
63;64;62;60
73;65;64;74
68;66;69;64
68;71;68;69
65;68;72;64
68;69;64;69
71;68;69;64
69;65;66;72
69;68;72;64
69;73;64;68
68;64;68;64
64;66;64;64
65;60;64;60
64;64;60;60
63;56;60;60
58;64;56;58
60;56;54;60
53;57;52;54
61;52;52;52
54;53;55;48
54;52;52;48
52;54;54;50
57;49;54;57
48;50;52;48
53;49;48;52
48;48;52;48
56;52;54;54
50;56;60;52
58;56;52;62
54;60;60;60
62;60;56;64
63;60;64;56
64;60;64;68
65;64;68;64
69;68;64;68
68;68;68;64
68;73;66;70
68;64;72;68
72;69;64;70
71;72;73;68
72;68;68;72
70;68;73;64
68;71;68;72
72;68;70;68
66;74;69;68
74;66;68;70
65;68;64;64
66;61;64;64
60;60;66;60
66;63;56;63
60;60;62;57
61;63;56;60
55;54;62;56
55;56;52;56
61;52;56;52
54;60;52;54
58;48;55;50
52;54;56;52
57;52;52;56
52;52;55;52
52;54;52;57
53;52;58;52
56;56;54;56
58;56;61;58
59;60;60;60
61;60;66;65
62;64;60;62
64;61;64;66
61;68;68;64
68;68;64;72
68;68;69;64
69;70;68;70
68;64;70;68
70;73;64;66
71;64;70;68
69;70;68;68
71;68;70;68
68;68;65;64
70;64;64;64
60;68;62;64
68;64;60;68
62;64;62;57
63;60;60;64
60;60;61;52
60;60;58;60
52;58;58;52
58;52;52;56
54;56;56;52
57;54;54;54
52;61;53;48
59;48;52;54
48;57;52;52
55;52;56;55
48;56;54;52
59;52;58;52
56;63;56;60
60;52;58;56
56;60;58;60
62;56;60;60
64;64;60;60
66;64;68;60
64;65;64;68
66;64;68;64
70;71;64;72
68;68;74;68
73;69;64;70
69;68;70;70
73;70;68;72
69;68;73;68
73;73;64;70
66;68;68;65
66;64;64;68
66;64;64;60
66;65;60;62
60;64;61;56
63;61;56;62
57;60;63;56
62;62;54;60
55;56;60;52
57;60;54;60
53;52;56;52
54;55;50;56
54;48;56;54
54;56;48;52
55;48;56;54
50;52;54;48
57;53;52;56
53;56;61;54
58;54;52;58
58;56;60;60
60;62;56;61
60;56;63;60
58;68;60;64
69;62;64;64
62;68;66;64
71;69;66;72
68;68;70;64
68;68;68;70
69;64;70;64
66;70;66;68
69;66;70;71
66;72;68;68
68;64;68;70
64;68;72;66
68;64;64;70
68;64;65;64
64;68;64;64
66;64;64;60
56;64;58;56
60;52;56;60
56;56;56;52
60;52;52;60
52;52;49;48
54;54;48;54
53;52;52;48
50;55;44;52
51;52;54;49
52;52;46;48
54;48;54;53
48;56;48;52
54;48;52;52
52;52;56;54
57;52;52;54
57;54;60;52
56;60;52;56
60;56;60;60
60;64;56;64
63;60;66;64
66;68;64;64
68;64;70;68
64;70;64;68
68;68;69;64
66;72;64;68
71;65;72;70
66;71;64;68
72;68;66;72
66;72;68;68
74;64;64;69
62;64;64;64
68;60;60;60
60;64;65;56
64;66;62;66
58;60;64;56
63;60;56;60
57;52;58;52
57;60;52;56
55;52;52;52
49;55;48;52
54;52;54;52
48;54;46;52
52;48;52;53
48;52;49;48
53;52;52;52
53;55;54;50
54;56;56;61
58;56;62;58
62;60;58;60
57;56;62;60
60;58;60;64
68;64;68;65
64;69;64;66
68;64;66;68
68;70;65;68
71;68;72;68
68;70;68;72
73;64;69;69
64;68;68;66
68;68;68;69
64;68;68;64
73;68;68;72
64;64;68;64
66;60;64;68
60;68;64;60
68;62;60;68
60;64;63;60
65;56;56;62
58;62;63;56
63;56;58;60
54;56;58;52
60;54;56;56
52;56;56;52
52;48;48;56
52;52;52;48
53;48;48;52
48;52;52;48
52;56;48;54
52;52;52;52
53;60;52;56
57;52;58;52
54;58;52;58
56;52;60;56
56;61;56;60
62;60;64;62
60;64;62;68
69;60;68;65
64;68;64;65
66;68;70;65
68;68;64;68
68;64;68;68
68;72;66;72
70;69;68;64
68;68;64;68
68;64;71;64
64;68;64;64
64;64;68;64
64;68;60;64
60;56;64;60
58;64;56;62
60;56;61;56
60;58;52;58
54;52;56;52
57;58;52;57
58;52;58;52
52;54;52;54
52;52;52;48
52;52;48;52
51;48;48;48
52;52;44;52
52;46;52;48
52;52;48;54
52;48;52;54
55;57;52;56
57;52;56;54
56;61;52;57
59;54;62;60
60;62;57;64
62;60;64;64
66;68;68;68
64;64;68;68
64;69;64;68
69;64;68;68
64;69;65;68
70;64;68;68
68;69;68;68
70;64;68;72
65;70;68;68
69;68;68;70
64;64;64;64
65;63;60;64
58;64;64;60
63;62;60;60
60;60;64;62
60;60;56;61
58;54;60;56
56;56;54;56
60;52;56;58
54;56;48;55
57;50;52;52
50;52;52;48
54;49;48;55
48;52;48;44
55;52;52;52
49;52;55;48
56;53;52;54
52;52;54;50
58;56;54;61
53;52;60;52
55;60;56;62
56;60;60;60
64;60;60;64
56;64;65;64
69;64;64;68
62;68;64;64
73;66;68;68
64;68;66;64
71;68;68;71
64;74;68;68
70;68;68;72
64;73;68;64
73;66;64;71
64;70;64;64
68;64;64;70
64;64;60;60
68;64;64;65
62;64;62;56
66;56;60;60
56;60;56;56
58;56;56;60
52;56;52;52
60;52;53;56
54;54;56;52
56;52;52;52
44;46;52;48
52;52;52;52
48;52;52;44
53;50;48;52
47;48;54;49
52;54;50;56
55;52;56;52
53;58;52;60
55;56;60;56
54;60;56;60
62;56;64;62
60;64;60;64
66;60;66;64
66;72;65;68
70;64;70;68
69;72;71;68
68;68;68;68
68;68;69;68
68;68;68;68
68;68;68;68
68;68;65;68
69;66;68;69
64;68;64;64
65;60;64;64
60;64;64;64
69;62;64;64
60;60;63;60
64;56;60;60
54;52;56;49
56;56;48;58
52;52;56;50
53;56;48;54
53;48;52;52
49;54;48;52
55;50;52;52
50;54;54;52
52;54;52;52
52;52;57;52
53;55;50;58
54;52;57;56
54;56;54;56
58;54;60;57
56;62;60;56
63;56;60;62
56;62;60;60
64;64;64;68
60;64;68;64
71;65;66;70
64;68;64;64
68;64;64;65
64;64;70;68
68;68;66;70
66;66;70;66
68;70;64;64
70;64;68;68
68;73;64;66
68;64;68;64
64;64;64;60
65;63;64;64
60;64;62;60
62;62;56;60
56;60;60;56
56;57;52;57
57;56;60;55
57;60;56;56
56;52;56;52
48;54;52;52
52;48;52;52
46;53;52;48
52;52;52;57
50;54;54;48
52;56;52;56
48;52;56;49
54;56;52;56
56;54;60;54
60;60;56;60
61;56;60;60
61;68;64;64
66;61;64;68
60;68;69;68
68;68;64;70
66;64;70;68
72;68;68;72
66;68;70;64
70;74;68;70
68;68;74;69
70;72;68;68
71;64;70;66
64;70;64;64
66;64;68;64
64;68;64;64
66;62;64;66
60;60;66;56
65;62;60;62
56;60;60;58
60;62;52;56
56;52;60;52
55;56;54;54
59;54;57;53
55;56;48;52
53;52;52;52
52;56;50;52
54;52;56;54
52;52;55;52
56;52;52;60
54;54;60;56
56;57;54;60
60;56;58;62
56;63;60;60
63;60;64;66
60;66;68;64
68;68;64;68
64;64;68;64
68;69;68;64
68;68;70;68
64;70;70;68
70;64;68;70
64;68;72;64
70;68;70;68
70;66;73;68
68;70;68;68
71;64;70;64
64;69;66;68
70;64;66;68
60;64;64;61
64;62;60;66
60;64;63;56
64;56;56;60
56;56;58;56
58;58;52;56
54;52;57;52
52;60;48;56
54;48;52;48
52;58;48;52
53;48;52;52
50;48;52;48
52;48;48;52
50;52;53;48
52;54;52;54
58;48;56;56
50;57;54;56
58;52;52;60
53;54;56;56
62;62;56;68
56;60;64;60
65;61;64;66
64;64;68;68
68;68;64;69
65;64;68;65
64;68;64;68
64;64;68;64
64;68;64;68
69;64;70;73
64;68;70;64
69;68;64;72
64;64;68;64
65;65;60;66
60;64;64;60
64;64;60;68
60;58;64;62
60;60;60;60
60;52;60;56
52;63;56;56
58;54;52;57
52;57;52;52
52;54;52;57
48;52;54;48
55;53;48;54
48;52;52;46
52;52;52;52
48;52;56;48
54;56;52;60
53;52;56;52
58;61;52;60
56;54;58;56
56;60;56;60
60;60;62;60
60;64;64;64
68;64;68;68
64;64;68;66
71;68;72;73
68;72;69;68
71;68;68;70
68;68;70;68
70;68;68;72
70;68;70;64
68;74;68;68
69;68;70;68
64;65;64;64
70;64;68;66
64;68;65;68
64;65;64;64
60;64;64;60
68;60;60;65
56;60;60;56
58;54;52;56
52;52;58;49
55;56;48;52
48;48;56;48
52;58;48;55
55;48;53;50
49;56;52;48
52;49;52;56
52;56;54;52
54;52;52;54
54;56;56;56
52;54;57;56
57;56;60;56
56;58;56;60
60;60;60;61
60;60;60;64
62;64;64;66
60;68;64;64
69;66;64;70
64;68;70;64
70;69;64;70
66;70;69;68
68;73;68;72
68;68;72;68
68;71;64;72
68;64;68;65
66;66;64;68
64;64;68;60
64;70;60;65
62;64;64;61
60;64;60;60
60;60;65;60
57;63;54;56
56;53;58;54
52;58;56;56
54;49;52;54
48;54;52;52
52;48;52;52
52;56;52;48
52;48;52;53
44;52;46;52
52;52;52;52
52;52;54;52
56;54;56;56
56;60;54;56
56;54;56;61
56;60;60;58
62;61;61;65
58;60;62;60
64;61;64;69
64;68;69;64
68;68;64;72
68;68;70;65
69;68;68;69
68;68;70;64
68;69;64;70
71;68;71;68
70;70;64;72
65;68;70;64
68;64;64;68
68;68;72;68
66;70;65;68
64;60;65;60
64;64;60;65
61;60;64;60
60;60;56;60
58;56;60;55
52;60;53;56
56;53;58;54
52;58;53;56
58;52;56;54
52;58;50;52
55;48;55;52
48;52;52;52
57;54;52;54
48;54;52;52
52;48;54;54
52;56;56;56
60;52;56;60
52;58;60;56
61;57;60;63
56;60;60;60
63;60;64;66
60;64;64;60
68;66;64;69
64;68;69;64
72;68;68;68
65;70;68;64
70;68;68;73
64;70;68;68
72;68;68;72
64;68;66;64
69;68;64;70
64;68;66;64
70;64;68;68
64;66;68;65
64;63;64;68
60;64;65;60
66;60;60;63
57;60;63;56
60;60;56;60
56;56;58;54
56;60;52;56
53;52;58;52
53;52;48;52
53;48;52;48
52;53;52;52
52;54;54;52
50;56;53;52
58;52;56;54
54;60;56;56
60;54;56;60
56;60;60;56
62;56;60;63
61;60;60;60
63;56;64;69
60;65;68;64
65;64;68;68
68;70;68;64
68;68;64;73
64;69;68;68
70;70;68;74
70;76;76;68
72;68;68;74
72;70;72;68
68;73;64;70
69;68;68;68
64;68;66;68
64;64;64;64
62;68;64;64
62;60;60;65
56;63;63;56
63;58;60;60
52;56;56;52
56;56;54;58
52;52;56;55
52;48;52;52
52;52;54;50
58;52;52;56
48;56;55;52
52;52;52;52
48;52;52;52
54;52;52;54
52;56;56;56
58;52;56;60
53;60;57;56
62;60;60;60
56;62;60;60
60;60;64;62
60;64;64;64
68;64;64;66
64;70;66;64
74;68;72;69
64;68;66;68
70;64;64;68
64;68;68;68
74;64;68;70
64;69;64;64
71;64;72;68
64;64;64;68
68;64;64;64
60;64;60;64
66;60;64;60
60;63;60;62
66;64;64;63
60;64;56;63
57;60;60;56
56;60;56;58
57;52;56;54
52;55;52;52
57;48;54;52
48;55;48;54
52;52;52;52
52;56;49;52
49;48;57;48
52;54;48;58
53;52;54;52
55;56;52;57
53;52;60;52
57;56;52;60
60;60;63;60
60;60;60;64
60;64;66;60
64;64;64;68
64;64;68;64
66;66;66;68
65;64;70;66
70;69;64;70
68;68;68;68
70;69;66;70
68;72;69;68
72;68;68;76
66;68;68;68
70;64;64;68
64;64;64;64
66;64;64;68
64;64;62;60
62;60;60;61
56;60;61;60
60;60;60;62
57;60;57;58
58;54;60;60
56;56;52;52
54;52;56;54
52;55;54;52
56;52;52;54
48;56;53;48
54;53;48;56
50;56;56;52
58;52;53;56
52;52;58;55
54;56;52;56
60;56;56;54
57;62;60;60
62;56;60;60
60;64;60;66
64;64;68;62
64;66;64;69
68;68;68;64
68;70;66;72
70;68;74;68
66;71;68;70
68;68;68;70
68;74;68;72
68;68;68;68
68;72;64;68
66;68;70;66
64;64;64;68
64;64;64;65
60;64;60;60
62;58;60;63
57;62;60;60
61;56;60;56
52;58;56;54
58;52;56;60
52;56;58;52
60;49;52;56
52;57;53;48
55;52;52;54
48;54;55;52
57;49;52;56
49;52;52;48
56;53;50;56
50;56;60;52
56;55;52;60
56;52;56;52
56;60;58;61
58;60;64;62
64;64;57;64
62;60;68;64
66;71;64;68
69;66;68;68
66;70;68;70
72;68;72;74
64;72;70;68
70;68;69;76
66;70;72;68
70;69;70;73
71;70;72;68
69;68;68;70
66;68;68;64
64;68;64;68
68;64;68;66
64;68;61;64
65;58;64;60
58;62;56;60
60;56;62;56
54;58;53;60
60;54;56;55
49;54;54;54
54;48;52;55
48;50;54;48
55;52;50;54
48;52;52;46
52;52;48;56
49;52;54;50
52;52;52;56
55;52;56;52
56;60;52;60
56;56;60;56
60;60;57;60
62;56;66;60
64;66;60;64
64;60;66;64
64;68;62;68
69;64;68;68
64;73;66;68
68;64;68;65
64;70;68;68
66;68;70;70
64;68;70;68
68;68;68;71
68;64;68;64
64;64;64;66
64;64;64;62
64;62;60;66
60;60;64;60
56;65;60;62
62;56;62;60
56;54;54;60
56;52;60;54
52;60;52;56
52;53;56;52
52;54;52;56
56;52;52;52
52;55;48;54
52;52;58;50
48;56;48;54
52;48;52;47
48;59;52;52
54;52;56;54
52;55;54;60
56;52;56;57
54;56;56;60
61;58;64;62
56;60;61;60
63;60;64;64
64;68;64;64
70;64;68;70
65;68;66;68
71;65;73;72
64;72;68;68
70;64;72;69
64;68;71;65
74;64;65;68
64;70;69;68
74;68;70;66
64;68;68;66
68;65;66;66
60;68;68;64
65;60;60;65
56;60;63;58
62;60;56;60
52;56;58;56
56;57;52;58
52;56;53;52
56;54;52;56
50;52;58;48
56;57;54;54
52;50;56;50
53;54;52;56
52;52;56;52
52;52;52;52
52;52;54;60
56;60;54;56
60;52;58;58
56;63;60;60
60;56;60;63
58;64;65;64
65;61;64;66
64;64;64;68
68;64;68;71
66;64;68;64
68;66;64;70
64;68;71;64
68;70;68;73
68;72;70;68
68;72;68;68
68;68;73;68
68;70;64;72
71;68;69;70
64;69;68;68
73;64;64;68
64;64;64;64
66;66;64;65
56;60;62;56
62;56;56;61
52;56;60;54
56;60;52;56
52;54;58;52
56;56;52;52
49;48;54;52
52;52;48;54
54;48;54;53
48;54;50;52
54;48;52;52
48;52;54;54
58;54;57;60
52;57;56;56
58;54;56;60
54;56;58;61
60;58;60;63
60;60;63;64
68;68;68;72
64;68;68;68
68;68;70;68
64;72;70;68
68;68;68;74
68;70;70;68
72;68;68;68
64;72;72;72
70;68;68;72
68;72;71;68
68;68;64;68
64;65;68;64
64;65;64;64
60;62;65;60
60;66;60;60
61;62;62;56
60;56;56;62
56;56;60;56
56;58;56;56
52;56;55;52
56;52;52;56
54;52;56;52
52;52;48;57
48;52;52;48
54;48;52;56
48;54;56;52
52;54;52;56
54;52;58;57
52;58;52;56
57;54;58;60
52;58;56;56
62;57;64;60
56;64;62;64
66;65;68;68
64;68;64;64
65;64;64;68
64;64;68;64
69;66;66;72
64;68;70;64
68;69;64;68
65;64;70;66
68;73;64;68
66;64;68;64
64;72;66;68
65;60;64;64
60;64;62;64
65;60;60;65
60;60;63;60
60;58;56;63
60;60;60;54
56;60;52;56
52;52;54;54
50;52;49;52
53;52;56;52
48;54;47;52
54;48;52;52
46;52;48;52
52;48;52;54
46;52;52;48
52;48;48;54
48;50;56;48
57;54;52;60
52;52;60;56
60;57;53;60
57;52;60;58
56;62;60;60
60;56;64;65
60;68;66;64
68;65;64;66
64;69;68;64
68;70;68;70
64;69;68;64
68;70;68;70
70;64;72;68
64;70;68;68
71;64;75;68
64;72;66;69
68;64;72;64
64;68;64;64
65;60;64;62
60;68;64;62
65;64;60;62
52;56;60;52
60;56;54;60
50;52;56;52
52;53;52;56
49;52;55;49
52;53;52;52
53;44;52;53
48;52;46;50
53;48;52;52
48;52;57;48
52;52;50;55
49;48;60;52
52;60;52;52
56;52;56;53
54;58;52;60
60;56;60;61
56;61;60;60
64;60;60;62
58;64;66;68
71;64;64;68
64;70;68;64
70;68;70;72
68;68;70;68
72;73;68;76
68;68;69;70
70;68;68;73
68;68;72;65
71;68;68;68
64;68;68;66
66;66;64;68
62;65;69;64
64;64;60;65
58;64;60;56
60;60;56;62
52;56;60;56
60;60;56;60
52;56;56;52
56;53;52;58
48;55;56;50
52;52;50;57
48;54;52;46
52;52;48;52
46;44;52;47
48;55;48;50
53;48;52;54
52;52;52;54
55;52;56;57
52;58;57;56
60;56;60;61
57;60;62;57
62;61;60;66
62;65;66;64
65;64;64;70
65;68;72;68
70;72;68;72
70;72;73;70
70;72;68;72
72;68;72;68
70;76;68;76
70;68;72;70
68;72;68;70
68;64;68;68
64;71;64;66
68;64;64;68
62;64;66;64
68;62;60;65
57;60;63;60
62;60;60;60
58;56;63;52
60;58;54;56
56;52;56;56
52;58;54;52
53;52;54;58
53;52;54;52
52;54;52;52
52;50;56;52
52;56;52;52
57;54;56;61
52;52;60;54
60;57;52;60
54;56;62;56
62;60;56;60
62;56;64;60
64;70;64;65
65;68;70;68
64;68;68;68
68;68;68;69
64;68;69;64
68;66;70;76
70;72;73;68
70;68;70;76
68;72;72;68
68;70;69;72
68;64;69;64
68;68;64;69
66;64;66;65
64;66;64;64
61;60;64;68
60;60;60;60
63;60;60;61
57;60;60;56
58;58;56;60
54;60;57;52
57;55;52;58
52;52;56;52
54;54;52;56
48;52;56;48
50;56;48;50
54;54;54;54
48;54;54;50
58;52;52;58
53;56;60;54
56;57;56;60
56;60;63;60
56;62;57;60
60;58;64;60
61;62;60;64
67;60;68;65
64;68;64;68
68;66;68;69
64;72;64;68
69;64;69;70
64;70;68;72
70;64;68;74
68;72;72;68
76;70;72;72
68;77;72;68
68;68;68;68
64;70;68;68
69;64;68;66
60;69;64;64
64;64;66;68
60;66;64;60
62;62;60;62
56;60;62;56
56;58;56;62
54;52;54;52
54;56;52;58
54;52;56;48
52;56;52;54
54;52;52;54
52;52;50;52
54;52;56;55
52;58;56;48
54;52;56;57
56;56;60;52
56;61;56;60
58;60;62;60
58;62;60;62
65;60;64;60
64;68;68;68
69;66;68;71
64;70;73;68
70;69;68;73
65;72;74;70
72;71;70;76
68;72;76;69
72;72;68;76
70;68;73;70
68;70;68;70
70;64;68;68
65;68;64;64
68;64;69;68
64;68;68;64
64;64;60;64
62;60;64;60
64;63;60;60
60;58;61;56
53;56;56;52
58;54;56;55
52;52;56;52
56;54;52;56
49;52;52;48
53;55;52;54
54;52;54;52
52;54;46;54
53;48;52;52
52;54;52;52
57;54;54;57
52;54;54;52
56;52;60;63
56;60;63;56
60;61;56;64
62;60;64;60
60;66;64;64
64;64;64;68
64;68;68;64
68;64;68;70
64;68;72;68
72;70;68;72
70;68;76;68
70;72;68;70
71;68;69;72
68;73;68;68
68;64;68;68
64;64;65;64
68;64;64;64
60;64;65;62
64;68;62;64
65;56;64;60
57;60;58;56
61;56;57;56
50;56;60;52
57;55;56;55
50;52;56;52
54;53;48;56
54;52;55;52
52;57;54;54
52;52;56;52
48;54;55;53
52;49;52;53
52;56;56;52
56;54;52;56
52;56;62;56
58;58;60;61
61;56;61;58
56;60;57;65
61;60;64;68
64;70;64;68
68;64;70;64
64;70;68;68
71;70;70;72
64;72;70;68
72;64;68;71
65;68;70;64
71;68;64;70
66;68;68;64
68;68;64;68
68;64;68;62
64;68;64;64
65;60;68;66
60;66;64;60
60;60;60;62
58;62;60;60
62;56;60;56
56;60;52;54
52;54;54;53
52;56;54;52
52;48;55;57
52;54;52;48
52;48;52;52
49;54;54;48
52;53;48;54
52;52;56;52
52;54;52;58
57;52;56;56
53;57;52;56
60;58;61;56
56;60;61;60
62;60;62;68
60;64;66;64
68;64;64;68
64;64;70;68
68;72;68;72
70;68;72;68
68;72;68;72
72;69;73;73
68;72;72;68
72;68;68;73
68;72;72;68
69;69;68;68
68;68;69;64
68;66;64;68
64;64;68;60
64;68;56;64
63;58;64;60
60;62;60;60
60;56;62;60
56;63;56;52
58;54;60;60
53;56;56;52
56;52;52;55
48;56;55;50
56;52;52;54
48;52;55;52
53;52;50;52
49;50;52;50
50;57;52;56
55;52;56;56
56;61;54;56
58;52;60;62
54;60;56;60
60;56;64;63
60;64;62;60
64;64;64;68
64;68;68;64
70;66;68;72
66;70;73;68
68;70;70;72
68;70;72;68
72;68;70;72
68;72;72;68
68;68;68;70
68;68;69;68
68;68;64;68
68;64;70;66
64;70;64;66
68;65;68;61
64;68;60;64
60;60;60;56
60;60;55;60
56;56;60;58
56;63;54;52
56;52;60;54
52;60;52;54
52;48;53;48
48;54;48;52
53;48;52;46
48;53;48;48
52;48;52;48
49;54;50;53
54;52;54;53
52;56;49;56
57;52;60;54
56;63;54;60
61;54;61;60
60;62;60;64
63;60;68;64
66;68;65;68
69;64;71;68
68;76;68;68
68;68;68;64
64;70;64;68
68;64;70;68
66;70;64;69
69;68;73;68
68;71;68;74
72;68;76;69
69;69;64;68
65;64;64;62
64;64;60;68
64;58;64;60
56;62;57;60
58;54;60;56
56;54;54;56
56;52;54;56
50;56;55;53
57;52;52;56
48;54;52;52
52;52;48;56
48;52;55;52
52;50;50;54
52;50;55;48
52;52;48;54
48;52;52;52
54;57;50;57
56;52;57;56
56;58;52;56
56;53;60;56
60;62;56;64
63;61;68;60
64;66;60;64
66;64;70;68
69;75;70;69
68;68;68;68
68;72;70;72
73;68;70;70
68;73;70;68
73;64;72;69
68;68;70;68
69;68;68;69
60;68;64;64
69;64;64;68
60;65;60;57
64;64;60;65
58;64;62;60
62;60;56;63
56;62;60;56
56;60;58;61
53;56;60;52
56;54;54;58
53;56;60;52
52;54;52;54
52;53;52;52
58;46;52;53
52;52;52;50
52;52;50;52
48;52;52;52
54;52;54;56
48;56;55;56
61;54;56;62
56;60;60;58
68;58;60;65
60;64;62;60
68;64;68;71
64;70;70;66
68;70;68;72
68;68;70;65
68;72;68;70
70;68;76;68
70;72;68;72
74;70;74;70
72;76;66;70
72;68;68;69
64;72;70;68
69;68;70;71
68;70;68;68
66;64;64;64
60;64;65;60
64;61;60;60
60;56;62;56
58;57;54;60
58;58;60;56
56;60;52;56
56;52;60;52
54;58;52;56
56;50;52;52
54;57;52;52
53;48;52;53
48;52;52;48
56;50;49;54
48;54;53;48
58;53;54;58
56;58;56;52
60;54;54;60
56;60;62;60
66;63;60;68
62;68;68;66
68;70;64;70
68;64;71;68
70;74;68;72
68;68;76;69
70;72;68;72
70;68;72;68
69;76;68;72
71;68;72;68
68;72;65;68
69;64;72;66
68;73;62;68
68;60;66;64
64;64;62;64
64;64;64;62
60;64;60;60
63;56;60;60
56;60;56;52
60;56;52;58
52;52;53;52
54;55;48;54
52;48;52;52
48;54;48;50
53;52;50;52
48;52;49;49
53;48;52;53
48;52;46;48
52;52;52;54
52;58;59;56
61;57;56;61
60;57;60;56
62;62;60;68
56;60;66;56
64;60;64;68
66;68;68;64
68;68;64;71
65;68;74;69
72;68;68;72
68;72;72;69
76;68;70;72
70;68;72;68
70;68;68;70
64;68;71;64
72;68;68;68
65;64;68;60
66;65;64;68
64;64;65;60
66;62;60;66
58;60;63;60
64;56;60;63
56;56;60;52
60;56;52;56
52;52;52;52
53;52;48;56
50;48;54;44
52;53;48;52
52;52;52;48
52;53;44;52
49;48;48;49
48;52;48;52
53;46;52;54
52;56;52;52
56;53;52;61
56;60;63;56
60;60;58;63
63;64;68;60
64;64;64;68
68;69;70;69
71;69;64;72
68;68;74;66
72;72;64;72
68;64;76;64
70;72;64;69
68;68;70;68
69;73;68;72
69;64;73;64
72;68;64;68
68;64;71;64
68;68;64;68
66;68;68;66
68;68;64;68
64;64;62;61
64;62;60;61
61;56;63;54
60;60;52;60
56;48;52;52
49;53;48;52
52;52;60;48
52;54;48;53
52;48;54;48
50;55;44;52
50;48;52;48
50;52;48;52
52;48;56;52
56;54;52;56
58;52;57;52
60;63;56;60
62;56;62;60
57;63;56;64
66;56;64;62
60;68;64;64
68;64;68;64
68;73;66;68
74;74;74;74
68;70;72;68
76;68;76;72
72;78;68;72
74;72;73;76
69;76;68;72
73;68;72;72
72;73;68;68
71;66;75;69
66;68;64;68
68;64;68;64
64;68;60;64
65;56;64;58
60;63;56;60
60;56;56;56
52;56;50;56
57;52;56;52
52;58;48;54
53;48;56;52
52;55;46;54
54;50;58;48
54;53;48;54
54;52;58;53
54;60;48;56
54;52;60;52
54;56;56;61
60;60;61;60
60;60;58;60
62;56;62;61
64;64;62;64
69;64;68;62
64;68;66;65
73;68;68;72
68;74;68;68
71;68;73;76
68;68;68;72
76;72;76;73
70;74;72;72
76;69;70;71
72;73;70;69
74;68;76;66
68;70;68;64
69;64;68;64
64;64;64;60
68;60;61;62
60;60;61;56
63;56;62;60
56;60;60;54
61;54;56;53
53;62;52;52
57;53;56;54
48;53;52;52
55;49;52;52
52;52;48;48
52;48;48;53
48;53;54;47
54;52;46;55
48;48;54;48
56;54;48;54
52;56;56;52
56;58;48;60
56;60;56;56
60;56;56;65
58;64;63;64
70;64;64;69
64;68;68;66
71;64;68;72
68;70;69;68
72;73;70;74
68;68;72;68
76;68;68;70
70;68;73;68
72;72;68;76
68;70;73;64
72;68;68;70
69;65;68;64
68;70;64;68
64;64;66;64
68;64;64;66
64;60;63;56
60;63;56;63
60;54;63;52
58;60;52;60
56;52;57;48
56;56;52;54
54;50;54;53
53;56;48;52
52;46;56;47
52;53;48;52
54;48;52;55
52;54;50;52
53;52;52;56
48;52;56;48
56;52;52;57
56;52;58;56
63;56;52;60
60;60;65;56
64;61;56;66
64;64;68;68
66;68;64;65
65;65;70;64
68;73;65;70
72;64;68;70
68;68;68;68
75;68;72;70
70;72;70;68
74;68;72;72
68;76;68;69
68;66;72;71
66;68;64;68
65;60;68;61
60;60;60;56
63;62;60;60
56;60;58;56
60;54;61;52
60;55;52;56
58;52;60;49
54;56;52;53
54;54;57;52
56;58;48;56
58;52;60;52
53;58;49;52
56;48;58;53
52;56;53;52
57;53;54;58
54;60;56;60
60;56;62;62
62;63;60;60
64;60;64;68
60;64;63;64
68;64;64;73
64;64;68;64
72;68;64;69
70;64;72;68
72;68;68;70
72;68;74;68
72;70;68;72
72;68;72;70
72;72;68;72
69;64;73;66
68;76;68;72
70;65;71;66
68;70;64;64
71;64;66;65
64;64;64;64
66;60;60;63
60;62;60;60
62;52;60;57
56;56;56;54
63;56;60;57
54;58;52;53
58;48;52;53
52;54;48;52
52;48;53;54
52;54;52;52
54;46;52;54
52;56;50;52
54;55;56;56
52;60;58;52
60;52;57;60
60;60;61;56
64;62;60;60
60;61;62;61
64;64;64;64
64;64;69;64
68;71;64;72
69;68;69;65
68;72;64;72
69;72;72;68
72;68;68;72
69;71;70;68
70;64;68;68
71;68;74;68
71;68;70;70
70;68;68;66
68;66;68;70
69;65;72;64
64;68;64;64
66;64;62;62
60;60;61;56
63;60;56;56
56;60;60;54
60;56;52;56
54;54;56;52
54;52;50;56
53;48;58;50
52;54;50;48
52;46;54;48
50;54;48;52
53;50;54;52
50;53;54;54
53;48;58;57
54;56;56;54
60;53;57;60
56;62;60;60
62;60;60;68
64;64;64;64
64;66;64;69
68;64;71;64
72;68;68;70
68;68;72;69
70;69;64;74
71;68;73;70
68;76;68;76
70;70;74;70
70;73;68;76
72;68;74;71
70;73;66;69
71;68;68;64
68;69;64;64
66;64;68;64
64;64;60;64
68;62;64;63
56;56;60;60
62;56;61;54
56;58;56;54
59;52;54;52
52;56;53;52
58;49;52;52
48;56;54;48
53;52;48;56
46;52;52;50
56;52;50;54
54;52;52;48
54;53;52;52
52;56;55;52
56;54;50;60
54;52;62;52
58;62;58;62
63;56;60;62
64;64;60;64
65;64;69;66
66;69;64;72
68;64;70;68
68;70;68;68
68;68;72;69
69;68;68;70
70;64;72;66
72;70;64;70
68;68;72;69
69;72;66;68
68;64;64;62
64;68;64;64
65;60;64;64
64;64;62;61
64;56;56;62
60;56;60;52
56;60;48;56
57;52;57;52
52;52;54;54
53;52;55;52
49;48;48;52
53;48;52;48
48;52;50;52
52;48;52;46
52;52;48;52
55;52;53;52
52;54;52;52
58;56;53;56
52;58;52;54
60;52;56;61
54;60;60;56
62;56;60;62
61;62;64;56
66;66;64;72
64;68;68;64
74;70;70;72
68;68;70;68
72;68;65;76
70;68;70;68
71;68;68;70
70;68;76;68
72;68;68;70
68;64;65;65
70;68;64;68
66;64;68;64
64;64;60;64
62;62;68;64
64;66;56;64
61;54;60;56
58;63;52;60
60;52;62;54
56;57;56;52
60;52;60;52
52;56;53;52
56;52;54;57
56;52;55;48
56;52;50;55
52;56;52;48
52;46;46;53
52;53;52;54
56;54;52;56
52;56;56;52
60;56;56;64
60;60;62;56
64;60;60;65
61;64;64;66
64;64;64;68
64;64;68;64
69;64;68;70
68;68;73;64
76;70;68;72
68;70;72;74
76;70;72;72
71;72;70;68
72;68;68;74
72;76;70;68
75;68;66;71
66;68;68;64
69;64;64;71
64;64;64;64
71;62;60;63
60;64;58;61
65;56;60;60
60;60;52;56
56;52;52;54
50;54;48;48
58;48;52;53
52;52;52;46
55;48;44;49
45;44;52;45
53;48;48;50
48;48;55;46
55;52;50;54
52;52;53;52
56;54;52;56
53;56;56;54
56;52;52;56
56;58;61;56
62;60;60;64
62;64;64;64
64;60;64;68
68;68;72;64
69;64;64;70
68;68;69;64
74;68;70;74
70;70;68;68
72;68;72;72
69;73;72;70
74;68;64;71
68;68;68;68
69;64;64;68
68;68;68;64
69;64;66;68
64;66;66;60
66;64;60;62
60;60;56;52
57;54;58;60
58;56;56;52
56;52;52;54
52;52;54;52
54;53;52;54
48;48;55;44
52;50;48;52
52;52;55;48
56;54;52;56
54;52;56;52
56;57;54;58
60;56;61;56
60;60;56;60
61;62;65;60
64;62;60;64
68;64;68;64
68;64;64;64
71;66;64;71
68;73;64;69
74;68;72;69
66;73;68;72
76;70;72;73
68;74;68;68
76;68;72;76
72;76;72;70
72;70;72;72
70;72;72;64
72;68;68;68
66;72;64;64
70;64;64;69
64;68;68;64
68;56;64;64
56;60;63;60
65;60;58;60
56;56;56;52
60;52;56;55
52;57;48;52
54;52;52;46
52;52;46;52
52;52;52;50
52;48;48;54
50;54;55;48
58;49;52;53
52;57;52;54
57;52;56;52
54;58;54;56
61;56;62;56
60;61;57;60
58;56;62;60
65;64;60;68
61;64;68;64
71;65;68;65
64;68;64;68
72;68;68;68
70;70;68;72
68;74;73;64
72;68;64;73
70;68;72;68
70;64;70;71
69;70;64;68
75;64;68;64
69;68;64;66
68;68;64;60
68;65;60;66
60;66;60;60
66;60;64;60
60;68;54;60
60;56;60;56
58;60;54;56
60;52;60;52
52;57;48;52
55;50;54;50
52;52;52;54
55;53;56;46
52;52;48;53
53;48;53;46
54;56;52;54
52;52;54;49
58;52;52;57
57;60;60;56
60;60;56;60
60;60;60;58
65;63;60;68
64;68;64;64
73;66;68;68
68;76;69;68
70;68;68;72
68;72;68;68
70;68;74;70
69;76;72;73
73;72;72;72
72;73;70;72
76;68;72;70
72;76;68;72
71;66;76;68
70;73;64;68
66;60;70;64
68;66;60;64
68;56;62;62
64;63;56;60
60;56;58;56
58;60;52;58
53;52;56;52
58;59;52;56
53;56;54;52
58;54;52;58
50;52;54;48
56;52;50;52
52;53;52;48
57;52;52;56
48;54;58;52
62;56;56;60
52;60;54;54
64;56;60;61
62;65;60;56
66;56;64;66
64;68;64;64
69;64;68;64
68;74;64;68
70;68;73;68
68;70;68;72
72;72;72;68
72;71;68;76
72;68;72;68
76;71;72;72
70;72;70;70
74;68;70;70
69;72;68;64
73;65;70;68
65;68;64;64
67;60;64;62
64;64;56;60
60;60;62;56
60;58;52;58
60;56;57;54
60;56;52;53
52;52;53;48
55;54;52;54
48;52;46;48
52;46;50;48
48;52;52;52
55;44;48;52
48;52;46;48
55;46;53;49
53;57;52;52
57;52;57;54
52;56;54;54
55;56;56;56
60;63;56;60
60;60;64;56
64;64;60;66
64;65;70;60
69;68;64;70
69;70;70;68
76;68;69;70
69;72;71;72
76;68;68;72
71;72;76;68
77;68;72;74
73;76;68;72
74;68;72;72
70;72;68;68
68;64;68;68
65;68;64;64
68;60;64;60
60;66;62;63
60;56;60;56
60;57;54;57
52;56;56;48
56;52;53;54
52;52;53;48
57;49;50;49
49;49;48;48
52;48;50;52
44;48;44;46
53;44;52;52
45;49;49;52
57;48;56;52
48;52;48;53
60;52;56;54
56;56;54;60
63;56;60;56
58;61;56;64
68;64;69;64
64;68;68;68
70;68;74;68
68;72;68;69
74;68;73;68
72;70;70;74
74;72;76;69
72;72;70;74
74;70;76;72
72;72;68;72
74;68;76;70
70;74;68;70
68;64;69;64
68;64;64;68
68;64;68;64
68;66;60;64
61;60;63;56
60;56;56;60
56;56;56;48
53;54;52;52
52;56;49;48
52;50;48;52
52;54;47;48
53;44;48;52
46;52;50;48
52;49;48;52
49;54;48;50
52;48;52;54
55;54;54;52
56;53;54;60
54;56;56;52
60;57;56;58
60;60;62;60
65;56;64;66
64;66;68;64
71;66;64;71
68;70;68;64
74;70;72;72
69;76;72;68
74;66;72;74
74;76;72;72
76;73;76;74
76;78;68;72
72;68;74;68
68;70;64;68
72;65;69;64
69;69;60;65
60;60;68;60
64;60;56;60
58;58;60;52
61;54;56;56
56;56;54;48
56;53;50;52
52;52;52;45
53;48;48;47
44;46;44;38
44;36;36;45
38;44;40;40
46;40;44;49
42;50;40;44
48;46;48;47
46;50;44;48
52;48;56;53
53;58;50;52
58;54;62;54
56;56;56;63
62;64;70;64
68;68;64;69
69;68;68;64
74;64;72;72
74;78;77;76
79;76;84;80
85;88;84;88
88;88;93;88
95;95;92;100
95;96;96;94
100;94;100;102
96;100;100;92
98;93;92;95
88;89;89;84
91;82;84;84
80;78;76;76
74;68;68;60
64;61;52;52
53;44;47;38
44;37;32;33
31;28;30;20
24;20;24;24
26;28;24;28
33;24;32;31
30;36;32;36
40;36;41;40
44;44;38;42
45;40;44;44
46;52;47;52
48;44;52;49
53;52;48;56
53;56;56;56
60;60;54;60
56;60;64;56
68;64;64;68
68;68;70;68
76;68;68;76
70;76;72;72
79;72;76;79
76;79;76;82
89;84;90;88
88;92;92;92
95;88;93;88
95;94;92;100
100;96;103;94
100;94;96;100
95;93;92;92
92;85;88;88
85;86;81;76
81;72;74;72
68;64;64;56
62;54;52;50
48;52;46;40
42;32;36;30
32;30;28;28
28;20;25;20
31;29;22;31
28;28;34;28
38;31;32;39
33;36;33;36
42;40;40;44
40;44;40;40
50;46;48;47
44;52;48;48
55;50;52;52
52;53;54;54
60;52;60;56
60;56;56;64
70;64;68;64
69;68;64;74
73;72;77;72
76;79;76;84
82;84;88;84
88;89;88;94
89;88;94;88
95;92;92;105
108;116;120;128
127;124;124;127
128;136;140;152
165;158;168;167
166;172;184;192
194;196;205;208
215;220;223;236
256;236;245;249
256;248;244;249
242;228;221;196
184;159;134;112
90;72;48;17
0;0;0;0
0;0;0;0
0;0;0;0
0;0;0;0
0;0;0;0
0;0;0;0
0;0;0;0
0;0;0;0
0;0;0;0
0;0;0;0
0;0;0;0
0;0;0;0
0;0;0;0
0;0;0;0
0;0;0;0
0;0;0;0
7;29;47;68
97;116;142;158
172;192;208;228
263;270;286;300
326;358;384;401
415;420;442;454
474;485;488;504
512;504;506;502
508;512;504;514
508;512;508;512
512;505;512;508
516;506;507;494
489;477;460;452
440;420;392;364
351;322;296;270
236;216;191;164
149;110;86;68
40;16;0;0
0;0;0;0
0;0;0;0
0;0;0;0
0;0;0;0
0;0;0;0
0;0;0;0
0;0;0;0
0;0;0;0
0;0;0;0
0;0;0;0
0;0;0;0
0;0;0;0
0;0;0;0
0;0;0;0
0;0;0;0
0;8;24;52
64;80;104;128
148;158;176;196
216;232;244;268
300;318;354;388
400;430;433;436
456;464;480;494
495;516;533;532
540;544;534;526
512;505;502;492
498;478;456;436
414;390;364;352
348;316;288;265
244;237;226;212
212;197;180;165
149;132;116;106
106;96;92;92
84;80;79;76
76;70;68;68
69;68;68;64
68;62;64;61
62;62;56;56
66;57;62;58
56;60;56;60
61;58;60;60
60;64;58;60
64;56;60;60
64;64;60;64
69;64;68;64
64;68;65;68
73;64;68;69
72;74;68;72
74;72;78;76
79;78;76;84
85;80;84;80
86;86;84;88
93;84;92;90
92;92;88;94
95;92;98;92
100;100;92;95
94;92;95;92
94;95;84;88
92;86;86;79
84;87;80;80
76;76;74;72
73;76;66;68
65;60;60;56
62;57;52;52
53;52;52;44
48;44;36;36
39;36;40;32
34;39;28;32
36;32;36;32
36;38;32;38
40;36;40;38
44;45;42;44
47;40;46;44
46;50;44;48
55;44;54;50
55;56;52;52
56;48;52;52
60;58;54;56
63;56;62;57
64;68;61;66
64;64;69;64
72;72;64;68
73;64;72;70
78;77;72;76
76;72;84;78
85;84;80;88
86;84;89;86
92;92;88;95
92;86;92;86
92;95;88;89
93;84;84;82
85;85;78;80
82;76;84;78
76;76;72;76
74;68;76;68
69;71;60;65
61;56;56;50
54;53;48;48
47;44;46;42
44;40;36;38
39;32;37;31
37;39;32;36
41;32;38;36
40;47;36;40
40;40;45;40
42;47;38;40
47;40;47;46
50;52;44;52
52;48;54;48
57;60;48;52
56;52;60;54
60;62;56;60
60;60;64;60
66;64;60;64
66;64;70;68
70;68;68;72
74;72;79;72
79;77;76;80
76;82;79;76
86;80;84;80
82;87;84;84
89;80;85;80
84;84;80;84
86;76;80;76
77;77;74;78
79;68;74;68
72;70;64;68
68;64;70;60
68;64;60;62
57;52;58;52
61;54;52;54
52;56;52;46
57;46;48;52
51;52;47;48
52;46;50;50
50;52;46;44
52;44;46;47
47;54;44;44
50;44;52;49
46;52;45;48
49;48;52;48
50;58;45;52
52;52;60;48
54;57;52;56
57;56;58;54
64;58;56;60
61;60;64;64
68;64;64;68
64;64;68;68
74;68;72;68
68;72;68;68
74;70;72;73
69;76;68;72
78;70;74;70
76;73;68;72
78;72;76;68
73;72;68;72
72;66;71;68
71;68;64;68
64;64;68;60
64;64;60;64
61;62;60;54
66;60;56;56
56;60;56;54
60;54;56;52
52;54;48;52
55;48;52;52
55;57;48;50
50;48;52;44
49;50;44;52
47;48;50;44
50;49;44;50
48;48;52;44
52;50;48;54
52;50;57;52
60;54;54;57
52;56;54;56
61;56;60;54
60;63;56;64
63;60;66;64
68;69;64;69
68;68;68;64
72;64;68;73
74;76;72;70
78;72;73;76
74;78;68;72
77;68;76;72
74;78;73;72
76;68;77;72
75;72;64;76
71;68;70;64
71;68;68;72
66;68;68;64
71;64;68;64
64;64;60;64
68;60;64;56
58;60;56;56
53;52;53;52
56;54;48;52
52;52;53;48
58;49;48;53
50;52;48;46
57;46;50;49
48;52;46;46
52;44;48;52
49;53;46;48
50;44;52;50
52;56;48;52
53;48;56;52
56;57;50;56
60;48;52;56
60;60;52;60
63;60;64;62
66;68;60;66
70;68;70;68
70;73;66;68
71;68;72;74
73;73;68;70
77;72;73;73
76;74;72;72
74;70;76;76
76;79;72;74
76;68;72;68
72;74;70;72
74;64;68;68
68;69;64;64
69;64;68;64
68;68;60;64
68;60;66;61
62;63;56;60
58;54;60;56
54;57;52;56
54;54;54;50
54;52;48;52
52;44;50;46
52;50;46;52
52;44;52;48
52;52;48;52
48;52;53;46
55;54;49;53
53;52;56;52
58;52;48;54
53;52;56;52
60;56;54;58
60;56;60;57
65;60;60;62
61;64;64;64
70;64;64;70
70;68;71;65
76;71;68;73
71;72;72;69
77;72;72;73
68;72;70;68
79;74;72;73
74;76;76;70
76;72;72;73
70;72;72;70
75;71;68;72
68;69;68;64
72;64;64;64
64;64;62;64
68;60;60;60
60;64;60;60
63;56;56;54
54;54;52;54
60;52;54;52
52;54;48;52
55;50;56;52
52;54;52;52
59;52;55;50
52;50;48;54
54;48;54;46
52;52;44;54
54;52;53;48
56;58;52;56
56;56;60;52
60;58;56;60
61;60;62;56
60;58;60;64
63;64;65;60
68;64;66;70
64;72;68;64
73;68;68;70
68;72;69;70
77;68;72;72
72;76;72;72
78;72;72;70
72;76;70;72
68;68;69;64
69;72;64;68
68;64;68;64
65;64;60;64
62;60;62;60
66;65;60;68
62;64;63;60
66;63;58;63
60;60;58;56
62;56;56;56
57;57;52;52
55;50;52;52
52;53;46;48
53;48;53;50
50;52;44;48
47;44;52;46
52;52;46;52
53;52;52;48
54;52;49;54
48;52;52;52
56;52;52;56
57;56;60;56
63;60;56;62
60;64;62;56
64;56;60;65
64;68;64;64
71;64;66;69
64;68;66;68
75;68;68;69
68;70;69;68
75;72;72;68
68;76;68;74
73;70;76;72
74;76;72;74
76;76;76;72
73;72;68;74
68;64;71;66
70;71;68;69
66;68;68;64
72;68;68;69
64;68;60;60
65;56;60;60
58;58;56;56
62;54;56;56
57;56;48;56
56;52;57;48
54;54;48;52
52;52;52;52
57;54;48;52
52;52;52;48
55;48;48;52
52;56;55;48
54;48;52;54
52;56;50;52
59;52;56;56
56;60;52;56
62;56;61;60
60;64;56;60
64;60;64;60
64;68;64;68
69;64;72;66
71;72;68;69
69;64;68;64
72;72;64;68
69;70;70;64
76;70;68;70
70;68;69;70
76;70;68;72
70;68;72;68
76;68;68;70
68;70;68;64
69;64;64;66
62;64;60;62
68;57;60;60
60;56;54;52
60;52;54;52
48;52;48;52
58;52;52;52
49;52;52;48
55;48;52;50
46;54;49;46
53;52;52;50
52;50;52;52
54;49;52;50
52;56;52;52
58;52;54;54
53;56;54;56
61;60;56;60
56;58;56;56
63;60;56;60
63;62;60;62
68;64;68;66
70;72;65;68
73;68;72;69
70;74;68;76
74;68;73;68
72;72;68;72
72;72;70;65
74;73;68;76
73;72;70;68
72;68;69;72
68;70;68;66
70;64;64;70
64;68;65;64
68;64;64;69
60;68;63;60
66;58;60;63
60;62;56;56
63;54;60;58
56;60;54;56
60;54;56;54
54;60;52;52
54;48;56;52
53;54;48;52
55;52;56;54
55;52;49;54
55;52;54;53
54;58;52;56
58;53;56;53
56;58;56;56
60;52;57;52
57;61;53;56
61;54;63;60
60;64;60;62
62;64;68;64
64;68;64;68
71;68;72;68
68;70;68;72
72;72;72;68
72;70;70;72
72;70;73;68
75;72;72;72
73;68;70;68
77;76;72;76
73;76;73;72
76;68;72;72
68;70;64;64
73;71;68;64
64;68;64;65
71;64;64;60
60;62;56;62
63;56;61;52
60;58;52;60
60;56;57;52
60;52;48;56
53;53;48;52
58;48;48;52
50;52;52;48
54;48;52;52
52;52;48;52
54;52;53;52
52;58;52;56
57;52;56;57
56;56;52;56
62;56;60;56
60;64;60;62
65;60;64;62
64;68;64;68
69;64;72;68
69;68;64;74
68;68;72;64
73;68;68;74
70;68;68;68
76;70;70;76
71;74;72;68
76;72;72;74
73;76;69;70
74;68;74;71
68;68;64;70
68;64;68;64
68;66;64;68
68;60;64;62
65;62;64;69
63;62;63;56
60;56;56;60
58;57;56;52
58;50;52;56
52;56;52;52
56;52;52;52
48;52;50;49
52;46;52;52
52;54;48;46
52;46;48;52
48;52;52;48
55;52;56;56
52;56;52;52
60;52;52;54
56;60;56;60
62;52;60;56
58;62;56;64
67;60;64;64
64;71;68;64
68;64;68;64
68;72;68;70
70;68;72;70
72;76;66;72
70;68;78;72
79;73;72;78
76;72;76;70
77;73;69;72
72;72;70;68
78;72;68;72
66;72;70;66
72;64;68;68
64;64;62;64
69;64;65;60
60;64;60;60
63;60;64;60
56;63;56;56
62;54;60;56
56;56;52;54
61;52;58;52
55;57;52;56
57;54;60;52
54;52;48;56
52;52;56;52
56;52;50;54
53;52;54;48
54;52;48;56
56;54;56;54
58;54;54;60
61;60;63;58
60;63;56;62
62;64;66;65
64;68;64;64
70;64;69;64
71;68;64;70
71;68;72;68
68;76;68;74
76;70;76;68
72;74;69;74
71;72;74;70
72;72;68;72
73;68;72;68
70;70;64;72
71;65;70;65
68;70;68;68
70;64;70;68
68;68;66;68
65;64;70;68
68;66;60;64
63;56;62;60
63;60;52;60
56;54;60;52
61;60;52;54
56;54;58;48
52;52;48;54
53;48;48;45
48;48;44;48
47;44;49;44
46;52;47;50
53;46;52;52
52;52;53;54
60;52;56;60
54;56;54;56
62;56;60;60
60;64;66;60
66;64;64;68
68;64;70;68
69;70;64;69
70;68;72;68
72;76;72;70
76;70;74;74
72;74;70;72
77;68;68;76
73;76;73;68
76;68;72;76
69;72;73;70
73;68;68;70
68;68;70;64
70;64;66;68
64;64;66;64
68;66;64;66
64;64;64;58
64;60;56;61
58;56;60;52
60;56;52;60
54;56;57;53
57;53;52;56
54;52;54;50
56;54;50;54
52;52;56;48
54;50;44;52
50;52;52;48
54;52;48;54
50;54;53;48
54;54;52;56
56;56;60;54
56;56;52;56
57;56;60;56
60;60;56;64
63;64;69;60
68;68;64;70
68;68;69;65
70;69;68;73
70;68;68;68
72;68;68;77
72;72;74;70
76;72;68;79
70;72;72;68
74;74;68;74
69;68;70;68
70;72;64;72
69;68;68;64
65;68;64;68
64;64;68;62
64;63;56;66
65;58;60;56
58;60;52;56
60;54;58;52
52;52;48;49
54;52;58;50
49;55;48;48
52;48;48;47
44;52;44;50
55;46;52;50
46;48;46;48
55;50;50;52
52;52;52;52
58;54;52;54
54;57;52;52
60;54;56;60
54;56;61;57
60;60;58;62
60;64;62;64
70;65;64;64
64;68;70;68
72;68;72;72
68;76;70;69
76;73;70;74
71;72;70;68
76;73;71;73
72;72;72;72
77;70;72;72
70;68;72;70
76;68;66;68
65;64;69;64
68;65;64;66
64;64;66;61
68;64;56;62
56;60;60;56
63;58;56;58
54;52;56;54
54;60;52;60
52;52;52;46
52;53;48;52
48;44;48;46
48;52;46;48
50;44;47;46
48;50;48;52
47;44;48;46
46;48;46;44
55;49;48;52
49;52;52;52
54;48;52;55
52;54;56;52
60;56;56;63
58;64;60;60
68;61;64;68
64;68;68;64
68;68;68;74
70;68;70;64
72;68;64;72
68;68;72;70
72;68;68;72
70;70;74;68
72;70;68;72
73;70;72;70
73;72;68;76
73;70;70;68
68;70;64;70
68;64;69;60
64;68;60;64
68;60;64;56
60;61;57;60
60;52;57;52
52;60;48;52
55;49;52;45
49;53;46;52
54;45;50;48
49;52;47;48
49;45;48;46
44;44;44;44
50;44;45;44
46;44;47;44
54;54;44;52
48;48;54;52
56;56;52;54
52;52;54;52
56;60;52;60
60;56;62;60
60;66;60;64
69;64;68;64
68;68;64;68
70;68;70;74
72;70;71;68
72;68;72;70
68;74;72;68
73;68;72;73
72;73;68;68
73;64;70;68
69;73;68;66
71;64;64;66
64;70;60;64
68;60;64;64
60;64;61;60
60;60;63;63
56;60;53;56
58;52;54;53
52;54;48;48
52;44;48;47
44;48;42;40
47;44;44;44
42;46;44;40
46;40;44;46
42;50;44;40
46;44;46;45
46;52;47;44
50;44;48;52
46;52;52;48
55;50;52;54
48;60;56;52
60;56;56;60
56;64;58;60
63;60;64;66
68;72;66;64
69;64;68;70
68;69;65;68
72;68;72;72
70;74;70;68
76;68;72;72
68;72;69;68
73;64;68;73
68;72;68;68
73;64;68;70
64;68;64;64
68;60;64;66
64;64;62;60
64;60;64;62
60;64;56;56
61;56;60;58
53;58;52;52
57;48;52;52
46;52;50;44
53;50;48;52
46;50;50;44
53;44;44;52
46;46;54;44
52;46;44;48
49;46;49;44
48;48;48;48
50;46;52;46
48;52;48;50
56;52;52;54
52;52;52;52
60;55;56;60
56;60;60;56
62;64;60;64
61;60;65;60
66;70;64;68
71;64;68;68
68;74;64;68
72;68;72;70
70;72;69;68
72;64;72;71
68;76;68;68
72;64;68;72
69;69;68;64
73;64;68;70
64;68;60;64
68;64;64;64
64;64;63;60
64;60;64;63
60;64;60;58
63;56;56;60
54;60;53;48
54;48;52;52
50;54;49;48
48;44;49;46
48;55;44;48
50;44;52;49
49;52;44;45
46;47;46;46
48;52;47;46
53;40;49;52
49;54;48;48
56;52;53;53
52;58;52;52
58;52;58;56
54;60;52;60
60;56;60;60
60;62;60;64
64;64;65;64
69;66;64;68
64;64;68;66
68;68;68;68
68;69;72;68
74;68;68;70
71;70;70;68
71;68;70;68
68;70;68;68
74;70;68;66
64;68;64;68
68;64;64;64
64;64;64;64
65;61;66;60
64;62;56;62
59;60;60;52
56;52;52;56
50;52;54;48
56;56;50;55
52;52;52;48
48;46;44;50
46;48;49;44
50;48;46;53
44;44;46;40
48;47;44;49
45;46;48;44
52;52;50;55
49;56;55;52
54;52;52;60
54;52;56;53
56;56;56;56
59;56;63;56
60;60;56;64
62;56;64;60
66;65;64;68
68;66;69;64
68;64;64;68
64;68;64;64
68;68;68;69
65;68;70;64
69;68;64;70
64;68;65;64
70;64;64;69
64;64;66;64
64;64;64;63
60;64;60;64
66;56;60;62
60;62;57;56
60;52;54;53
54;61;52;52
55;48;52;48
46;52;44;52
48;46;48;44
50;54;46;44
46;44;52;47
48;52;40;46
46;44;48;42
50;48;46;48
48;46;52;46
48;52;48;48
48;48;52;50
52;56;48;54
54;48;56;54
54;60;48;52
56;58;60;60
58;62;56;56
65;60;64;60
64;65;64;68
68;64;68;64
68;69;64;72
68;68;68;64
68;69;68;70
64;68;68;65
74;68;68;68
68;68;70;64
69;68;64;66
64;68;64;64
67;64;64;65
60;66;56;56
62;56;61;56
56;60;52;60
58;52;56;52
56;52;52;56
48;52;50;48
56;52;52;58
50;54;52;48
53;49;48;54
46;52;50;48
53;44;46;52
46;52;46;46
53;46;46;48
46;52;46;44
48;44;48;49
48;52;52;48
54;48;52;57
51;56;52;52
60;52;52;60
54;60;54;56
63;56;60;56
60;65;60;64
68;64;66;64
66;71;64;68
69;68;68;64
70;72;64;72
66;68;72;65
71;72;66;70
70;72;73;68
72;68;68;72
70;72;68;64
73;68;64;64
64;66;60;64
66;60;66;60
64;65;60;65
63;60;60;56
60;58;56;62
56;56;52;53
57;52;52;52
52;56;44;48
52;48;52;48
48;55;44;48
48;46;52;46
48;50;44;46
48;44;46;40
46;46;44;48
46;46;47;44
52;48;46;52
48;48;48;46
54;48;52;53
52;57;48;52
55;52;54;53
54;56;48;54
56;52;60;56
62;63;60;60
62;64;66;64
66;66;64;68
64;68;68;64
68;64;64;68
66;68;68;64
74;68;68;69
68;72;70;68
73;68;68;70
68;74;68;68
74;68;68;70
65;69;65;64
71;64;64;65
64;64;64;60
64;56;60;60
56;57;56;52
60;49;52;56
50;52;52;48
54;48;48;52
48;48;50;44
52;44;48;50
44;48;46;44
52;46;46;45
48;52;44;44
49;44;48;45
44;48;44;48
50;44;48;46
44;50;47;44
52;48;52;50
48;56;46;50
54;50;56;54
54;54;54;52
61;56;60;56
56;62;56;60
66;58;64;64
60;68;64;64
68;64;64;68
64;68;64;64
70;64;64;68
68;72;64;64
69;64;68;70
64;72;68;64
71;68;64;66
64;68;64;64
68;61;64;66
64;68;61;60
67;60;64;63
60;64;63;56
60;56;56;60
56;56;52;52
61;56;52;56
50;52;54;48
55;48;52;52
48;54;46;52
53;48;50;46
44;53;44;46
48;44;48;44
44;52;44;48
52;48;52;44
48;46;44;46
49;44;50;45
46;50;46;48
52;52;52;48
52;52;52;54
52;52;54;52
56;58;58;58
57;58;56;56
62;57;60;64
60;64;60;64
70;64;64;64
65;68;66;64
70;68;65;68
66;70;68;68
71;69;68;68
64;68;64;64
68;64;70;64
64;68;64;64
66;60;64;60
64;64;60;64
60;56;64;56
61;60;56;60
57;62;60;56
60;60;56;56
54;54;61;52
57;54;52;54
48;52;50;46
52;48;48;52
46;48;50;44
49;44;48;48
44;48;45;44
49;44;46;46
42;44;47;40
48;44;46;47
45;47;44;44
52;44;48;49
49;52;48;48
52;44;52;52
52;56;52;50
60;52;56;61
58;60;57;60
65;56;64;64
64;65;60;64
68;64;64;64
64;69;64;68
69;64;68;68
68;68;68;68
73;64;68;68
65;68;68;64
69;64;68;71
68;68;68;68
72;64;64;64
64;68;66;64
68;64;64;64
60;68;61;60
66;60;60;62
56;58;60;56
63;56;56;60
52;58;52;48
56;48;52;52
44;48;47;48
53;46;48;52
45;52;48;46
52;46;48;47
44;45;46;44
50;46;46;44
44;52;44;44
52;44;48;48
46;49;46;48
55;48;48;50
52;54;52;48
55;52;54;56
52;52;56;52
60;52;58;62
60;60;62;60
66;60;64;64
60;68;68;64
68;65;64;72
64;68;68;64
68;64;68;68
64;64;70;68
73;64;68;70
64;68;69;68
72;64;68;68
68;68;66;64
68;64;68;64
65;68;64;64
65;64;64;56
60;64;56;60
58;56;60;52
60;52;50;56
54;52;54;50
54;55;48;54
50;52;54;48
52;48;46;50
48;48;50;48
50;42;46;51
44;48;47;44
50;44;48;44
44;46;44;48
50;41;47;45
44;52;47;46
50;50;48;52
48;52;52;46
52;52;50;56
54;52;56;50
56;52;52;56
56;56;60;56
60;62;60;64
62;60;64;60
64;68;60;64
68;64;68;68
64;66;64;68
70;68;72;64
64;66;64;68
73;64;68;64
68;70;64;68
69;64;68;64
64;68;64;64
68;64;64;61
60;64;60;60
66;56;60;62
60;60;60;56
63;56;56;56
52;54;54;52
57;50;56;54
48;52;52;50
54;48;52;52
48;52;48;48
52;44;46;52
45;48;44;44
49;46;44;48
47;47;52;44
52;52;44;53
47;52;48;46
53;58;48;52
52;53;57;48
54;52;52;56
53;56;56;50
56;60;52;60
57;60;62;60
60;65;62;64
66;64;68;64
66;68;64;68
70;64;68;64
64;70;64;70
70;68;68;68
69;72;68;68
72;64;64;70
68;72;68;64
72;66;65;68
64;68;68;64
68;64;64;68
60;64;66;64
65;62;64;66
60;60;64;56
61;56;56;56
57;54;60;52
57;56;48;56
56;52;52;48
50;48;44;52
48;44;48;44
44;47;44;48
47;44;46;44
44;44;40;44
46;44;48;44
46;47;44;46
47;44;48;44
44;44;44;48
47;46;48;46
48;55;44;49
52;48;56;52
52;61;52;56
58;52;58;60
56;62;56;64
66;64;68;64
64;70;64;68
72;64;68;64
64;73;68;70
70;68;72;68
68;70;68;70
72;64;74;68
70;76;68;72
76;68;72;68
65;64;64;64
70;64;65;65
60;64;60;60
66;60;60;60
56;62;63;56
62;58;56;63
57;60;57;52
60;52;48;52
52;50;52;48
48;48;44;52
46;44;47;44
48;46;44;48
45;44;44;40
45;44;40;45
45;38;44;40
42;44;44;44
44;44;46;44
44;46;44;46
50;44;44;48
46;48;52;48
52;48;52;54
52;52;48;48
53;52;52;58
54;56;56;52
60;60;60;64
64;64;66;64
64;64;56;0
0;0;0;0
0;0;0;0
0;4;36;66
102;148;180;216
264;292;324;364
404;436;456;484
516;526;546;572
582;600;609;613
628;636;648;645
637;644;645;640
634;634;624;628
617;612;600;576
554;524;484;466
432;392;356;312
276;220;180;138
88;36;4;0
0;0;0;0
0;0;0;0
0;0;0;0
0;0;0;0
0;0;0;0
0;0;0;0
0;0;0;0
0;0;0;0
0;0;0;0
0;0;0;0
0;0;0;0
0;0;0;0
0;0;0;0
0;0;0;0
0;0;0;0
0;0;0;32
60;92;140;172
213;262;300;348
385;412;452;484
516;550;588;629
678;709;752;802
839;882;924;960
1004;1044;1076;1118
1153;1188;1222;1262
1306;1329;1346;1362
1368;1378;1396;1404
1412;1404;1404;1418
1408;1396;1394;1376
1370;1354;1334;1316
1273;1236;1204;1156
1106;1046;980;926
854;792;716;640
572;492;414;350
276;204;137;64
0;0;0;0
0;0;0;0
0;0;0;0
0;0;0;0
0;0;0;0
0;0;0;0
0;0;0;0
0;0;0;0
0;0;0;0
0;0;0;0
0;0;0;0
0;0;0;0
0;0;0;0
0;0;0;0
0;0;0;28
68;108;148;188
232;284;328;384
424;464;504;540
576;616;658;704
751;800;848;897
936;988;1040;1086
1134;1173;1216;1268
1312;1349;1386;1428
1464;1500;1537;1560
1570;1570;1580;1594
1609;1612;1606;1612
1616;1612;1613;1600
1588;1572;1552;1536
1508;1478;1444;1404
1363;1308;1248;1189
1119;1046;970;896
810;730;652;568
486;420;340;260
185;109;36;0
0;0;0;0
0;0;0;0
0;0;0;0
0;0;0;0
0;0;0;0
0;0;0;0
0;0;0;0
0;0;0;0
0;0;0;0
0;0;0;0
0;0;0;0
0;0;0;0
0;0;0;0
0;0;0;14
48;88;140;172
218;268;312;358
416;458;492;537
569;604;646;688
730;784;828;880
937;980;1040;1077
1134;1184;1222;1274
1324;1364;1410;1441
1484;1521;1560;1604
1628;1644;1658;1664
1678;1685;1692;1697
1688;1686;1684;1680
1681;1664;1644;1639
1620;1600;1568;1529
1497;1449;1399;1350
1284;1213;1134;1064
988;900;820;740
656;570;488;417
336;256;174;94
33;0;0;0
0;0;0;0
0;0;0;0
0;0;0;0
0;0;0;0
0;0;0;0
0;0;0;0
0;0;0;0
0;0;0;0
0;0;0;0
0;0;0;0
0;0;0;0
0;0;0;0
0;0;0;0
21;54;90;148
180;225;276;312
368;416;456;500
540;568;609;646
688;732;780;830
882;938;988;1040
1084;1128;1184;1234
1280;1324;1366;1412
1454;1493;1532;1580
1620;1648;1672;1680
1686;1694;1702;1718
1726;1724;1724;1720
1724;1721;1710;1697
1684;1660;1641;1617
1583;1542;1486;1444
1390;1332;1263;1190
1112;1038;940;866
782;696;612;532
453;372;292;216
136;60;0;0
0;0;0;0
0;0;0;0
0;0;0;0
0;0;0;0
0;0;0;0
0;0;0;0
0;0;0;0
0;0;0;0
0;0;0;0
0;0;0;0
0;0;0;0
0;0;0;0
0;0;0;0
0;8;50;92
137;180;212;264
308;356;412;452
486;530;564;600
644;680;724;776
817;874;929;978
1039;1078;1125;1180
1224;1280;1320;1358
1408;1448;1490;1528
1576;1612;1645;1668
1685;1688;1694;1700
1714;1730;1728;1722
1727;1724;1720;1714
1700;1692;1665;1637
1623;1586;1548;1500
1452;1402;1344;1280
1206;1124;1054;964
884;808;720;638
564;480;404;324
240;172;88;36
0;0;0;0
0;0;0;0
0;0;0;0
0;0;0;0
0;0;0;0
0;0;0;0
0;0;0;0
0;0;0;0
0;0;0;0
0;0;0;0
0;0;0;0
0;0;0;0
0;0;0;0
0;0;0;24
62;104;156;188
234;281;324;376
424;456;493;532
560;597;636;680
725;762;820;860
908;958;996;1046
1092;1134;1186;1222
1260;1306;1341;1378
1417;1445;1481;1516
1538;1559;1558;1560
1566;1570;1580;1582
1576;1572;1566;1560
1557;1540;1524;1516
1493;1478;1448;1409
1373;1326;1280;1218
1156;1092;1021;954
895;816;744;671
588;521;440;372
314;236;172;108
48;0;0;0
0;0;0;0
0;0;0;0
0;0;0;0
0;0;0;0
0;0;0;0
0;0;0;0
0;0;0;0
0;0;0;0
0;0;0;0
0;0;0;0
0;0;0;0
0;0;0;0
0;0;0;0
0;0;0;18
28;40;58;68
81;92;100;116
122;128;134;136
140;133;120;120
120;122;125;120
126;124;124;128
113;108;112;104
108;108;104;108
108;108;105;96
102;96;92;94
90;88;87;78
84;82;78;80
72;74;72;68
70;64;64;64
61;60;58;52
56;48;48;52
47;52;44;44
47;44;44;44
40;45;40;36
44;38;40;40
38;44;36;40
37;36;36;36
37;40;32;38
38;36;40;38
36;44;37;36
36;36;40;36
40;40;40;44
44;41;44;44
44;48;44;44
48;46;52;52
52;53;52;52
56;48;56;56
54;61;57;60
62;60;64;62
64;68;64;64
68;64;69;65
68;68;68;68
69;68;70;69
70;69;68;68
69;66;69;66
68;69;64;64
68;64;68;64
64;68;64;64
64;64;64;60
62;64;60;61
61;64;62;56
56;60;60;60
60;60;57;56
52;53;48;52
52;46;54;53
52;52;45;48
48;46;52;48
48;52;44;52
48;44;48;44
46;47;40;48
45;44;48;44
44;48;44;50
44;44;47;44
48;52;44;46
48;48;53;52
52;52;48;52
52;48;54;48
53;57;52;56
56;52;58;56
56;61;56;60
60;60;64;60
64;66;64;68
65;68;69;64
64;64;64;68
64;64;70;68
71;71;64;70
64;68;71;64
69;64;64;69
64;68;68;64
69;66;64;66
64;64;68;64
66;64;64;68
64;64;65;64
68;64;60;66
62;64;64;60
64;56;56;60
56;58;57;52
57;52;52;56
52;52;53;44
52;48;44;50
46;48;50;44
50;48;44;48
46;44;46;44
50;47;46;50
46;44;46;44
46;46;44;49
48;48;52;48
52;52;44;48
54;48;54;52
54;54;52;52
56;52;56;52
56;60;54;60
58;56;64;63
63;63;64;68
64;65;68;64
68;70;64;69
68;64;70;64
70;68;64;70
68;64;66;68
69;68;64;68
64;64;68;64
70;66;64;68
66;68;72;64
68;66;64;64
64;64;64;60
64;64;56;62
60;60;61;60
64;62;60;60
60;58;58;56
61;56;56;60
54;56;60;52
60;52;52;52
49;50;54;52
55;52;48;52
52;48;48;44
48;50;44;48
46;48;48;44
52;44;44;48
46;46;50;44
49;48;44;49
46;48;52;52
54;52;49;52
52;52;56;48
54;60;54;60
56;56;60;58
63;60;56;62
60;66;68;60
65;64;64;68
64;64;68;64
68;68;64;70
64;68;68;64
73;68;68;68
64;68;68;66
70;68;64;69
68;64;70;64
68;64;64;69
64;64;64;60
68;66;64;65
60;64;62;64
70;60;60;64
60;64;57;56
64;62;60;62
56;61;60;56
60;54;56;56
56;56;54;52
60;54;52;55
48;52;52;48
53;50;48;52
48;48;48;46
52;48;48;54
48;48;52;44
52;46;48;52
48;48;50;46
53;52;48;52
48;52;52;52
56;48;52;54
56;58;60;52
60;60;60;62
58;64;64;60
65;62;60;66
64;64;68;64
69;68;64;70
68;68;68;66
72;70;68;72
68;68;68;64
72;68;68;72
68;72;72;64
73;66;68;70
68;68;70;64
73;64;66;68
68;69;64;64
69;64;64;64
60;64;56;60
64;64;66;60
64;62;60;60
63;56;62;56
60;62;56;60
57;54;58;52
52;52;48;52
54;48;54;48
52;54;48;52
53;48;52;46
52;54;48;50
52;48;52;49
48;52;46;48
53;50;52;52
48;52;46;50
54;46;54;54
52;56;52;54
61;56;52;56
54;58;52;56
62;56;56;60
60;60;56;60
64;60;60;64
60;66;64;60
68;64;64;68
65;68;66;64
74;68;72;72
68;72;73;68
73;68;68;69
64;70;68;64
72;66;68;72
64;68;65;64
72;64;64;68
64;64;66;64
66;64;60;64
61;58;65;62
66;64;56;60
60;60;62;58
60;60;56;56
58;52;60;54
54;56;52;52
55;52;52;48
52;54;48;48
49;46;52;52
48;52;46;48
48;46;48;47
48;50;44;46
50;45;48;48
46;48;48;48
52;48;52;50
52;54;52;52
60;52;56;56
52;57;54;52
60;52;56;60
56;60;56;56
60;60;64;66
64;68;64;64
69;64;64;70
64;68;68;64
72;64;68;72
65;68;66;64
68;65;64;72
66;72;68;64
69;64;64;68
64;68;68;64
70;66;64;66
66;66;68;60
68;60;64;66
64;64;64;56
64;60;60;61
58;60;60;52
61;56;52;60
54;54;54;52
56;52;48;52
50;52;54;48
57;46;52;52
52;56;48;48
54;48;48;48
48;52;46;46
48;46;48;46
46;49;48;48
52;44;52;48
48;52;48;52
55;52;55;52
52;56;54;52
56;52;56;56
56;56;52;57
60;56;60;60
60;64;60;60
64;60;64;64
64;64;64;64
68;68;68;70
68;70;68;66
70;64;64;68
64;68;66;64
68;64;64;72
68;68;68;64
71;64;68;68
66;70;68;64
70;64;68;68
64;68;64;60
68;60;60;64
60;65;60;60
62;56;60;60
60;60;60;56
60;56;60;56
56;60;56;54
56;52;57;52
52;57;52;52
52;48;55;49
50;50;50;52
53;48;52;50
52;56;52;52
54;52;52;52
52;56;48;52
53;52;54;52
54;60;52;52
58;52;56;56
56;60;56;52
60;56;56;60
57;60;56;56
63;60;60;64
60;64;66;64
70;64;68;68
64;68;68;64
69;68;68;70
66;72;68;64
68;64;68;68
68;72;68;68
72;68;68;69
68;68;64;64
68;64;68;64
68;68;64;68
64;60;62;64
64;64;63;64
65;60;64;61
60;63;56;56
60;56;56;56
54;56;52;56
54;52;57;48
53;54;48;52
50;48;52;48
52;52;48;50
48;48;48;44
52;49;46;46
46;44;52;44
50;48;44;48
47;48;52;46
54;48;44;50
52;48;52;48
54;54;52;54
57;52;56;56
57;57;56;58
56;56;60;56
61;62;60;61
63;60;68;60
68;64;64;68
64;64;64;64
72;70;64;69
68;70;72;68
72;70;66;68
68;72;74;68
73;70;68;72
68;70;74;68
72;72;68;68
69;64;68;64
66;68;68;68
66;64;66;65
68;68;64;64
65;60;60;62
60;64;60;60
62;56;60;60
60;58;54;56
60;52;56;56
54;56;54;52
58;52;52;54
52;54;52;52
55;48;48;52
50;52;52;44
53;44;48;52
48;48;52;44
53;48;44;55
49;48;54;48
54;52;48;56
54;52;56;48
56;56;52;56
56;53;60;54
58;62;60;60
68;56;64;64
64;69;68;64
68;64;64;65
64;68;60;64
72;64;68;68
64;68;66;64
69;68;68;64
65;68;71;64
68;68;64;68
64;68;70;65
71;64;68;66
64;64;68;64
68;68;64;66
60;60;64;64
65;60;60;63
60;56;66;58
62;58;58;62
60;56;58;53
61;56;56;56
54;52;56;52
58;49;52;55
52;52;52;52
54;52;48;52
50;48;54;48
54;52;52;52
48;50;53;50
53;54;48;54
50;52;54;49
56;55;52;56
60;48;54;54
56;60;56;56
60;54;60;62
56;60;60;60
64;58;64;64
64;68;64;64
69;64;64;68
68;72;65;64
72;66;64;70
68;64;70;64
68;65;68;70
70;68;72;64
68;68;65;72
70;65;68;64
68;64;64;68
66;64;69;64
64;66;60;64
68;60;64;62
61;68;56;64
63;56;60;60
56;60;56;56
62;56;58;56
56;56;52;56
60;54;53;53
52;54;50;52
57;48;52;50
48;52;48;48
52;44;48;47
48;52;46;48
54;52;48;52
48;52;47;48
57;48;52;49
52;54;52;52
58;54;52;54
52;52;60;54
60;58;56;60
60;58;60;60
62;64;60;64
64;64;64;64
64;64;64;68
64;68;68;64
69;64;64;66
64;68;71;68
68;68;64;70
69;68;72;64
68;68;66;70
68;65;68;68
70;70;64;70
69;66;64;64
66;68;64;66
65;64;68;62
64;66;64;65
64;57;64;60
62;63;56;60
56;56;56;56
60;60;60;58
60;56;61;52
57;56;52;58
56;48;57;52
53;54;52;52
54;48;54;52
50;60;52;52
56;50;53;55
52;56;54;52
57;52;52;52
54;52;57;52
56;56;52;60
59;56;60;54
58;60;60;62
60;60;64;58
62;61;60;66
64;64;65;60
65;66;60;68
68;64;70;68
70;68;64;68
74;68;73;68
68;72;70;68
74;70;72;70
68;76;68;72
72;64;72;70
69;72;68;70
72;68;72;71
70;72;68;66
73;64;66;68
64;68;68;60
68;64;64;64
64;64;66;60
64;64;60;60
60;56;60;57
57;61;53;52
60;52;56;55
52;56;52;48
54;48;48;55
52;52;52;44
55;48;48;55
49;48;53;46
50;48;46;52
52;48;53;46
52;52;48;52
56;52;52;52
54;57;56;56
60;54;56;56
54;60;56;56
62;60;60;62
62;64;62;64
69;64;64;66
64;66;72;64
68;68;64;68
68;68;68;68
69;74;68;70
71;70;72;68
68;74;68;68
72;68;72;73
69;68;68;64
72;64;68;70
69;64;68;64
66;64;60;68
68;64;68;60
64;65;60;64
66;60;60;60
58;60;56;58
61;56;60;60
58;60;58;56
60;54;56;56
52;52;52;52
54;48;52;50
52;52;48;48
54;46;52;50
52;54;46;52
55;44;48;48
48;52;50;52
55;53;52;52
52;54;52;56
58;52;56;54
56;56;54;53
60;56;56;60
56;58;60;60
63;61;64;64
64;64;66;64
69;64;64;69
66;68;72;68
70;68;68;70
70;68;76;68
73;72;68;70
69;68;72;70
72;70;68;70
71;68;73;68
76;68;68;72
68;68;68;68
68;68;68;69
68;68;66;64
68;64;64;65
60;60;66;60
63;60;60;60
60;60;62;54
60;63;54;57
58;52;56;52
52;60;54;53
58;48;52;53
52;52;52;48
53;46;48;52
48;54;49;52
53;48;52;48
46;52;52;48
58;52;48;52
53;52;52;48
58;52;52;56
56;56;54;52
58;54;56;61
60;61;58;61
66;56;64;64
64;68;65;64
68;64;70;64
71;68;64;69
68;68;68;68
72;68;68;72
69;70;73;68
74;70;72;70
70;72;68;68
72;68;72;72
70;72;69;70
76;70;70;68
68;70;68;64
71;68;68;66
64;64;60;64
68;64;64;60
60;65;62;64
63;60;60;56
60;62;52;57
60;56;58;54
54;56;48;57
59;52;56;50
53;54;49;52
48;48;52;44
52;52;49;52
52;46;52;46
52;52;48;54
52;48;54;46
55;52;44;56
52;56;58;49
56;56;50;56
56;54;60;56
60;60;60;64
63;60;64;56
66;64;64;66
65;66;70;64
68;68;66;70
70;72;74;68
73;72;68;74
74;72;78;70
72;72;70;72
72;72;74;68
72;72;72;74
73;72;72;68
72;70;68;72
69;68;70;64
71;64;64;68
64;64;68;64
68;62;64;64
60;64;62;56
64;54;60;60
56;60;56;56
61;52;56;55
52;54;53;52
55;48;52;56
52;56;48;48
55;44;52;52
48;53;46;46
50;44;48;47
48;52;48;48
52;44;48;48
52;52;49;52
54;52;56;52
56;58;52;57
56;52;58;56
58;60;56;58
60;56;62;60
66;64;60;64
64;64;68;64
69;68;64;68
69;64;68;68
73;68;68;68
66;68;76;64
72;72;68;72
72;72;71;68
74;68;70;71
68;72;68;68
74;70;70;72
68;72;65;64
68;64;68;68
64;64;64;64
69;64;64;61
62;66;64;60
65;60;60;60
58;60;56;57
60;54;54;58
54;58;54;54
60;52;52;52
52;52;52;52
54;52;52;52
52;52;52;52
58;52;52;52
52;53;52;52
54;52;56;50
52;56;52;52
57;52;58;52
56;60;54;60
61;53;60;56
60;63;56;60
63;60;64;56
64;62;60;68
62;68;70;64
72;70;68;70
68;70;72;68
72;68;72;76
72;76;76;64
77;70;72;76
72;74;72;72
78;72;72;78
72;72;72;68
77;68;72;76
70;72;70;68
72;68;68;72
66;70;68;68
74;64;64;68
64;64;66;64
68;60;64;65
62;62;60;56
62;56;60;56
56;56;52;56
57;50;56;52
52;48;48;52
52;48;49;48
48;52;44;48
47;44;48;45
49;46;44;46
48;44;48;46
46;52;48;48
49;48;50;48
52;53;52;56
54;52;56;52
56;58;52;60
56;60;61;56
64;60;56;63
62;64;62;66
68;64;68;66
72;72;68;68
71;64;70;64
69;74;69;73
69;72;72;70
74;74;68;78
70;68;76;68
76;72;68;78
71;72;74;68
72;68;72;73
70;72;70;68
74;66;68;70
68;68;66;64
70;64;68;68
68;71;64;62
64;60;60;63
62;60;56;60
54;52;57;52
56;57;52;52
52;54;52;52
55;48;48;52
48;52;48;50
55;46;48;48
48;48;46;52
55;48;56;47
48;50;46;50
54;48;52;48
52;56;44;52
56;52;60;52
53;56;53;56
57;52;58;52
60;60;60;64
65;60;66;60
64;66;64;68
68;64;70;64
76;68;68;72
73;70;73;68
76;72;73;76
72;72;72;72
78;72;76;77
68;74;76;72
76;70;72;74
72;77;70;68
76;68;72;72
70;73;68;68
72;68;68;70
68;68;64;68
70;60;64;64
64;64;60;60
60;56;62;58
57;62;53;54
57;52;54;53
56;54;48;56
53;50;52;48
53;52;48;52
48;52;50;48
54;49;52;54
53;48;50;48
56;52;48;52
52;52;54;52
57;48;52;52
52;53;52;52
59;52;54;56
52;58;54;60
62;60;60;60
60;61;60;64
68;64;68;60
68;68;68;70
71;68;73;64
72;70;68;76
73;72;74;64
76;73;72;79
72;72;76;64
74;74;72;74
70;74;76;69
79;70;76;74
72;78;70;70
74;68;73;68
68;72;65;68
68;64;68;68
68;69;64;64
66;62;69;60
64;60;60;62
61;58;58;56
58;56;54;56
57;52;56;54
56;58;52;56
53;49;56;48
53;54;52;52
49;48;54;50
54;52;52;53
55;52;56;53
55;57;52;52
54;52;56;53
54;54;52;54
59;52;57;54
57;60;54;60
58;56;62;56
62;61;64;64
64;64;68;64
68;68;64;68
65;64;68;66
70;68;68;72
68;72;71;68
72;70;72;70
70;72;74;72
77;70;72;70
72;74;72;72
76;72;76;68
72;71;69;73
70;68;72;64
70;64;64;68
65;66;66;60
68;63;64;65
62;64;64;60
66;56;56;61
54;62;60;52
60;56;56;57
53;56;56;52
59;52;52;55
52;54;52;48
55;46;48;54
50;52;52;48
54;49;54;54
49;52;52;48
53;50;52;52
50;54;52;52
59;52;56;57
55;60;56;52
61;56;56;62
60;64;61;56
68;60;60;68
62;68;64;60
65;64;64;70
65;68;68;64
72;66;68;72
68;72;70;68
76;68;72;73
68;72;72;68
77;68;72;76
72;77;72;69
76;68;72;70
68;72;68;68
72;68;68;68
68;74;64;68
70;64;71;64
65;70;64;64
64;64;66;60
62;60;61;61
60;58;58;58
61;61;54;56
52;57;60;56
60;54;56;56
54;54;56;52
57;52;52;52
48;52;48;48
55;48;54;53
52;52;50;48
54;52;54;52
52;54;52;52
57;50;56;56
54;57;60;56
61;58;56;60
52;56;60;60
62;60;64;64
62;64;64;60
64;64;64;68
68;64;72;64
71;68;68;72
71;68;72;68
72;70;70;70
69;72;72;68
74;73;72;72
74;72;70;70
76;72;72;74
68;72;70;68
72;64;68;69
68;64;68;64
71;60;64;66
64;64;61;60
62;60;60;62
62;60;62;60
62;62;62;61
56;58;56;52
60;56;52;54
52;52;54;52
53;53;52;54
52;52;52;48
57;54;52;52
52;52;52;52
54;55;52;55
50;52;52;48
57;55;52;54
53;52;58;52
57;56;56;60
56;56;58;58
58;60;57;60
62;60;66;62
62;68;62;64
71;64;68;65
66;76;70;70
76;64;72;72
68;76;72;72
82;68;72;72
71;78;72;70
78;72;72;77
72;76;77;72
77;73;72;76
72;72;77;68
74;71;68;76
68;70;73;64
72;65;68;69
64;68;68;60
67;62;64;70
60;64;65;56
64;60;60;60
56;60;60;52
56;54;56;54
52;54;54;48
58;52;52;58
52;54;53;44
56;52;48;55
50;52;54;48
55;52;50;54
50;48;55;44
54;48;52;54
48;56;57;52
60;57;56;60
56;56;60;52
60;57;56;63
56;60;64;56
64;60;60;66
60;66;69;64
71;66;68;70
69;72;71;66
72;70;72;76
72;68;76;68
73;73;72;76
72;72;76;72
72;78;72;77
76;73;77;70
73;76;73;76
76;68;72;70
70;72;66;70
74;68;70;68
68;69;64;68
69;64;68;64
64;66;64;60
65;63;64;60
60;62;60;60
61;58;60;56
56;60;53;52
57;56;52;56
50;54;54;54
58;53;52;56
54;52;56;52
56;56;52;56
53;48;57;54
54;58;52;54
60;52;56;60
54;60;60;56
62;54;56;62
54;60;63;56
60;56;56;61
58;64;63;56
66;57;56;64
60;64;68;64
70;64;68;69
66;64;73;64
70;72;68;74
70;72;74;68
72;72;68;76
74;68;73;66
72;76;72;72
70;68;76;64
68;72;68;72
72;70;72;64
72;68;68;70
68;65;68;60
68;68;60;68
64;64;66;58
64;63;61;64
63;60;66;56
62;60;56;63
60;56;60;52
60;58;52;56
56;56;60;52
57;54;52;56
54;54;59;52
56;52;50;58
53;54;58;50
56;52;48;56
52;52;56;50
58;54;52;57
58;60;60;54
61;60;56;62
61;60;61;56
60;62;62;64
61;66;68;60
68;64;68;68
65;68;72;64
72;68;68;72
68;72;70;66
76;72;68;76
68;72;72;68
76;68;72;74
68;72;72;68
77;70;74;76
70;76;77;68
76;72;72;76
70;72;72;66
72;68;68;72
64;68;68;64
68;60;64;66
66;64;65;56
62;62;56;63
60;56;62;56
60;58;56;60
58;56;60;52
60;57;52;56
56;56;56;48
57;54;52;53
55;52;56;50
54;53;50;56
54;48;55;50
56;56;50;56
57;56;60;52
56;61;56;60
58;52;60;56
60;62;60;60
63;60;64;60
60;64;60;64
64;60;68;64
64;68;65;68
70;64;70;68
64;68;70;68
74;73;70;70
70;76;73;72
72;72;74;72
70;72;72;70
74;72;72;76
72;72;70;70
76;71;68;72
71;68;68;64
68;70;64;68
65;64;68;66
64;68;60;64
63;56;66;60
60;68;60;60
63;52;58;60
56;58;57;56
60;52;56;63
54;60;54;52
61;52;56;58
52;57;56;52
59;52;52;55
52;54;55;48
57;52;52;56
52;58;55;52
58;48;52;58
53;57;57;52
63;54;56;62
60;60;60;56
63;62;64;68
60;68;68;60
68;64;68;72
68;72;73;68
76;72;72;72
68;72;76;68
78;70;72;76
72;72;76;68
77;70;72;76
70;72;74;68
76;72;72;77
70;72;76;68
76;73;70;76
68;74;74;64
72;68;68;71
68;68;68;64
70;62;64;70
64;68;65;60
66;60;60;66
60;60;62;58
66;60;60;60
56;60;56;52
58;52;54;56
52;56;54;52
58;52;52;56
52;54;54;48
54;53;52;56
48;54;53;48
57;52;50;56
52;53;54;48
58;56;52;58
57;58;58;52
60;58;56;63
60;60;60;60
64;64;62;64
60;64;68;60
65;68;68;71
68;68;70;68
73;68;72;72
68;72;76;70
76;69;68;76
70;68;73;64
74;72;68;76
72;76;72;68
74;74;73;78
76;72;76;68
73;72;68;72
71;68;72;68
70;69;64;70
68;64;71;64
68;70;66;68
66;64;64;60
67;68;60;64
62;56;61;56
57;62;58;60
58;56;60;56
56;60;53;54
58;52;60;52
54;57;54;57
57;52;52;52
52;56;52;54
54;48;52;52
48;52;52;52
57;52;56;53
53;54;52;56
60;58;56;58
56;60;60;56
65;62;60;62
61;64;64;60
66;66;65;68
66;64;69;64
68;71;68;70
71;65;72;70
72;68;71;72
74;70;76;72
72;78;68;73
76;73;76;72
70;76;72;68
76;72;70;74
71;76;76;68
73;72;64;72
68;68;70;64
69;68;64;68
68;64;68;60
60;65;61;60
65;60;60;61
58;56;60;54
60;56;52;54
55;54;56;53
52;56;52;52
55;52;53;52
48;52;46;48
55;48;48;52
50;52;53;45
58;48;48;54
51;52;52;46
52;50;50;56
54;53;58;52
57;56;52;56
56;56;63;58
60;63;60;62
61;60;68;62
64;68;65;68
70;65;64;64
68;68;68;70
74;70;76;70
70;76;72;72
76;72;74;76
74;78;72;74
76;72;76;74
69;76;72;72
77;72;78;76
72;79;76;72
77;73;72;72
68;72;72;68
73;70;68;68
64;64;68;65
68;68;64;66
63;60;65;61
64;64;58;60
63;58;62;58
60;61;60;58
63;60;63;60
56;66;60;60
61;56;62;60
56;63;58;52
62;56;60;60
53;60;60;56
60;57;60;62
58;60;60;56
63;60;60;64
55;62;61;56
64;65;60;65
60;61;65;58
64;68;64;68
62;66;68;64
68;70;64;73
71;68;72;68
70;76;70;74
77;72;72;70
72;73;68;72
74;72;74;71
70;72;75;72
73;74;76;72
72;76;76;72
74;70;72;70
68;72;68;68
71;64;70;69
68;68;69;64
69;64;68;64
65;68;64;64
65;60;64;62
62;64;60;60
63;56;60;56
56;60;58;56
60;56;56;52
54;56;52;48
55;53;50;52
52;52;53;48
54;52;52;54
50;52;53;52
56;53;52;54
53;54;57;52
56;56;54;57
55;52;56;54
54;60;60;56
60;56;66;60
60;66;64;64
68;64;64;68
64;69;65;64
68;68;70;73
64;70;68;68
76;70;69;73
68;70;76;64
77;72;68;77
74;77;76;68
74;73;70;76
70;76;77;68
78;73;72;78
71;72;76;68
74;72;70;74
67;68;73;64
68;68;64;70
63;64;68;64
64;65;60;65
61;60;65;56
60;63;60;60
56;56;60;52
60;58;52;60
52;52;60;52
60;54;52;56
52;54;58;52
56;54;52;54
52;54;55;48
55;48;52;55
49;56;54;48
55;52;49;54
52;56;56;52
58;52;56;60
56;61;58;52
63;58;56;61
56;60;63;56
65;64;64;71
60;66;68;68
70;64;68;71
64;70;71;68
73;68;70;73
69;72;74;72
76;72;76;78
69;72;78;70
77;76;72;77
71;70;76;68
76;72;70;76
70;72;73;68
76;70;68;72
64;70;72;64
70;69;64;71
66;64;66;60
66;66;60;64
56;60;63;56
61;62;56;61
57;57;60;52
61;52;52;58
52;52;55;52
57;52;56;56
50;54;55;48
58;54;52;57
48;54;52;52
57;52;52;54
48;54;52;48
56;52;56;59
56;56;62;56
60;58;56;62
58;61;60;60
66;60;60;68
60;64;68;64
72;66;69;69
66;68;69;64
73;64;69;70
64;72;70;70
74;68;72;74
70;79;76;74
78;72;76;76
72;76;72;72
77;70;74;76
72;76;72;76
77;70;76;70
70;73;68;72
71;68;70;68
68;68;68;68
69;64;69;63
64;65;60;64
61;60;61;56
60;60;56;56
54;56;60;53
56;53;52;57
53;53;52;48
54;52;52;56
52;52;52;52
50;44;52;52
48;54;49;49
53;50;53;50
50;56;52;52
54;48;54;56
54;54;52;56
58;56;60;58
60;66;60;64
62;60;65;60
64;64;60;65
62;64;69;64
68;69;66;72
70;68;72;68
70;74;70;76
71;72;78;73
74;76;72;76
77;72;76;72
76;76;76;78
76;76;79;74
77;78;76;79
77;76;81;72
73;76;72;72
70;68;72;70
68;74;69;68
68;64;68;64
64;68;68;64
66;68;64;66
60;60;60;56
60;61;56;60
56;56;62;53
56;60;56;60
58;56;61;54
54;56;53;52
61;56;60;56
52;60;54;52
57;53;56;60
52;57;53;48
58;56;56;60
52;58;58;54
60;58;56;61
56;56;62;56
63;63;60;64
63;60;65;60
64;64;64;68
66;64;68;68
68;72;68;70
71;68;70;70
72;76;70;70
75;72;76;76
73;76;76;72
76;72;76;76
74;72;76;72
74;72;72;72
68;72;73;71
71;70;68;74
70;68;69;64
68;69;68;68
66;64;68;64
66;66;64;68
60;62;66;60
64;66;60;60
61;56;60;57
56;58;56;56
59;52;56;54
52;60;52;52
55;52;54;52
48;52;50;52
58;48;55;54
50;56;54;52
60;54;56;58
53;58;57;56
62;56;60;63
58;62;60;56
63;58;56;62
57;60;63;60
62;64;64;68
62;65;69;64
68;70;68;72
65;68;71;64
68;68;70;75
71;70;76;68
77;74;72;77
69;72;76;72
76;72;70;77
74;78;81;72
76;72;72;76
72;72;76;68
74;74;72;76
72;73;74;68
76;71;66;73
66;64;70;64
70;64;60;68
64;64;68;60
64;63;60;65
60;60;61;56
60;60;56;62
56;57;60;52
59;56;56;60
52;60;59;48
58;52;54;56
48;56;55;48
56;53;56;57
52;54;56;52
58;54;56;57
52;57;52;52
60;54;56;63
57;56;60;56
62;60;60;63
60;64;68;60
67;60;64;68
64;68;68;64
70;64;68;71
68;72;69;68
72;68;68;70
68;76;70;72
73;68;76;74
70;76;70;68
72;68;76;72
70;78;74;72
76;72;76;73
70;76;70;72
71;68;74;68
68;70;68;70
70;64;70;68
68;69;64;70
65;68;68;62
66;64;64;64
60;64;60;56
62;62;60;60
60;60;60;60
60;52;58;56
56;60;56;58
58;54;60;54
54;57;52;56
56;52;58;54
54;57;56;60
55;56;60;52
56;56;56;60
55;60;63;56
63;60;60;66
58;64;64;60
64;64;64;68
60;64;68;64
68;68;68;75
68;68;72;64
73;70;68;76
65;68;73;68
76;68;70;76
69;72;70;68
73;68;68;76
68;72;73;68
76;72;70;76
68;73;72;68
76;69;68;75
68;70;68;64
71;64;68;72
65;68;65;64
70;64;64;66
64;65;62;60
68;60;64;63
60;66;63;60
63;56;62;63
60;61;56;56
60;53;60;56
54;58;56;56
60;52;56;54
52;60;52;52
56;52;56;52
52;57;48;52
54;52;54;52
53;52;52;56
53;52;56;54
57;60;54;60
54;56;62;58
61;63;58;63
60;60;64;60
68;66;64;68
64;68;65;64
69;68;68;70
66;68;70;68
74;68;72;72
70;74;72;70
72;69;77;74
76;79;74;76
76;72;76;74
72;76;72;78
76;76;78;73
76;72;70;76
72;72;74;68
72;72;68;74
68;68;69;64
73;66;64;68
64;68;63;60
68;64;64;62
60;65;62;60
66;57;60;60
56;60;56;56
62;56;56;60
57;60;60;56
63;56;56;60
54;56;56;54
60;52;57;60
52;56;58;56
61;52;56;60
54;60;61;56
62;60;60;63
56;60;62;60
63;62;60;64
60;60;68;60
66;68;66;70
66;64;68;64
72;68;68;73
66;68;74;68
74;74;72;78
69;72;74;72
76;72;76;77
73;72;73;68
74;72;72;76
69;72;76;70
74;71;68;72
73;72;74;68
70;70;68;68
66;68;72;64
70;69;68;68
65;64;70;64
64;62;60;64
62;60;66;60
60;60;54;60
58;60;62;52
60;58;60;62
60;60;63;56
63;58;56;58
52;56;56;52
59;52;56;57
56;60;58;52
62;55;58;60
56;56;56;52
61;56;60;63
54;62;60;56
61;52;60;61
58;60;60;60
63;60;64;65
60;64;63;60
66;64;68;69
65;68;69;64
69;68;68;72
68;68;70;64
71;68;68;74
68;72;76;68
73;73;72;76
68;76;74;70
79;72;76;76
73;72;72;68
73;73;72;76
69;68;68;68
74;68;71;70
68;69;68;68
68;64;68;66
68;70;64;64
68;56;65;60
60;63;60;58
60;56;61;54
56;62;52;56
57;52;60;54
48;56;52;54
54;52;56;52
52;56;52;52
53;48;52;50
52;52;48;52
52;52;57;52
52;55;52;58
54;56;58;52
60;61;60;61
60;60;62;56
64;62;60;66
62;64;66;60
68;64;64;64
65;64;70;64
68;68;64;70
69;72;72;69
70;73;68;74
72;70;74;68
72;76;70;72
76;72;76;70
72;76;70;76
73;70;78;72
72;74;70;76
73;72;76;68
72;72;68;70
69;68;71;68
71;69;68;71
68;64;64;64
68;66;64;68
62;64;63;60
63;60;61;62
57;62;58;58
60;56;60;57
54;60;55;57
58;52;56;54
53;58;54;56
56;52;60;56
56;57;52;54
55;48;56;54
56;57;54;60
56;56;61;57
57;56;56;62
60;56;60;56
60;62;56;62
62;60;66;61
64;66;64;68
66;68;69;64
71;64;68;74
65;72;71;68
73;68;72;74
69;76;70;72
77;68;72;72
72;76;74;72
76;70;76;79
74;79;72;72
76;72;76;71
72;76;68;72
71;68;72;68
72;70;68;70
71;68;73;64
70;68;64;68
62;64;66;60
68;66;61;62
61;60;62;56
62;60;56;60
56;56;57;52
60;56;52;56
52;58;55;52
56;53;52;56
52;56;52;52
60;52;56;60
52;58;54;56
58;54;56;56
56;60;56;56
62;56;61;61
56;60;56;56
61;60;63;60
60;64;60;62
68;60;68;65
64;68;65;64
70;68;72;72
68;70;66;68
74;70;72;73
68;76;71;72
77;70;76;74
72;76;72;72
78;74;77;76
76;78;72;72
78;73;73;74
72;76;76;72
76;68;72;70
68;72;68;68
72;64;66;68
64;68;64;60
70;63;62;64
64;62;60;60
66;56;60;63
60;60;60;52
60;52;52;56
52;52;53;52
54;52;53;57
53;52;55;52
57;50;52;54
52;52;48;46
53;52;49;54
52;52;55;50
58;54;56;60
56;56;60;58
63;56;56;63
60;60;64;60
64;63;60;68
60;64;63;64
68;64;65;70
64;70;71;68
74;68;70;72
68;70;71;68
76;70;72;74
73;76;76;68
74;72;74;77
72;76;76;72
79;76;76;78
68;78;76;72
79;70;72;76
69;68;68;68
73;66;69;68
65;69;64;64
68;64;68;64
64;65;60;63
63;56;63;56
60;65;60;63
62;60;63;56
60;62;56;61
57;56;63;56
60;60;56;60
55;56;56;56
60;58;56;58
58;57;56;52
60;58;56;58
55;56;56;52
56;56;52;58
56;60;63;56
64;60;60;61
60;60;63;56
60;63;62;64
63;60;68;64
65;64;64;68
68;64;68;64
68;68;64;68
68;68;76;70
72;72;70;76
68;72;72;68
70;73;68;70
68;68;76;68
70;71;68;72
68;68;68;68
72;73;68;70
68;70;71;68
70;68;68;68
64;68;68;64
68;64;64;66
60;64;62;61
64;58;60;61
57;60;60;56
60;52;56;52
53;56;54;52
60;54;56;53
54;57;52;54
55;52;53;44
52;52;48;52
52;52;56;44
50;46;48;55
50;53;52;46
52;49;48;54
50;54;52;49
56;50;52;56
52;53;56;52
58;54;54;58
52;62;60;60
63;60;64;64
60;65;64;64
67;64;68;68
64;69;64;64
68;64;70;72
68;68;68;68
75;69;73;69
68;76;70;70
72;70;72;72
70;72;69;70
76;70;72;70
68;76;72;70
72;64;68;68
64;68;64;68
71;64;68;64
64;71;65;65
68;64;64;60
60;60;56;58
60;56;58;54
54;60;54;56
57;52;58;52
52;58;52;56
55;52;56;52
52;54;44;52
52;49;57;48
54;54;48;52
51;48;50;48
53;48;49;54
49;52;52;52
59;52;54;56
54;57;57;54
62;55;60;60
56;63;60;60
63;62;64;62
64;68;64;64
68;64;72;69
68;72;66;72
71;70;72;64
70;72;68;72
75;69;76;72
76;76;68;74
72;73;76;70
78;73;72;79
72;72;74;68
76;69;72;72
64;72;68;68
72;64;68;71
66;68;68;68
71;64;66;64
65;68;60;64
64;61;60;58
60;62;57;56
60;56;56;56
53;56;54;54
57;52;54;55
52;56;52;52
56;49;52;54
50;52;55;46
52;50;48;54
52;52;54;46
53;50;48;53
50;52;56;48
54;54;52;58
54;56;60;52
60;63;56;62
60;54;65;58
60;64;60;64
63;61;64;64
64;68;64;70
74;66;69;71
72;72;68;72
71;72;76;70
72;72;72;76
74;72;76;68
74;73;68;72
70;72;76;68
75;70;68;72
68;68;70;64
72;64;68;70
68;72;68;64
71;64;68;65
64;65;58;64
66;60;64;63
60;63;60;60
63;60;60;60
56;60;56;56
58;54;60;56
56;56;48;54
54;52;53;52
49;52;52;54
53;50;54;52
53;52;50;55
50;52;56;52
55;52;52;56
48;56;58;52
60;54;56;63
57;56;60;56
60;56;60;60
57;62;61;60
63;60;68;63
64;68;63;64
70;68;70;69
68;72;68;73
74;68;72;70
70;73;70;72
74;70;72;70
72;76;68;72
73;72;77;72
75;72;68;78
73;70;76;68
76;70;70;74
70;76;76;66
74;69;68;74
68;68;71;64
70;66;68;69
65;68;70;60
66;62;61;66
60;64;62;56
63;54;60;60
54;60;54;56
60;54;52;52
52;56;52;48
55;48;56;53
48;52;48;48
50;46;54;54
52;53;50;52
50;52;53;52
54;55;52;57
52;50;56;54
54;56;56;58
55;56;60;56
60;61;53;61
60;60;60;60
61;60;64;65
63;64;65;64
68;67;64;70
65;68;69;68
71;64;68;71
66;68;68;68
73;68;72;74
68;74;68;72
76;70;76;70
70;73;69;72
74;68;74;72
72;68;68;72
72;68;76;64
64;68;64;68
66;64;68;61
64;64;64;66
62;64;68;60
64;63;61;63
57;60;56;52
58;54;56;60
54;56;54;49
57;53;52;60
50;52;56;48
54;52;48;52
48;52;50;48
54;48;48;50
48;53;49;50
50;52;53;50
52;52;48;52
52;52;54;54
56;56;56;56
56;60;61;56
63;60;62;62
60;66;60;64
68;64;68;66
68;71;66;70
73;68;68;68
72;74;68;76
73;72;78;72
76;74;68;76
72;76;76;72
81;72;76;79
74;76;74;76
78;68;72;72
73;74;68;72
73;72;72;70
72;71;68;70
69;68;68;68
68;66;68;68
64;69;64;64
66;60;64;60
60;64;60;60
60;56;60;56
56;54;52;60
57;56;61;52
56;53;52;56
52;52;55;52
57;48;52;56
48;52;50;50
55;50;52;48
52;55;46;52
55;48;56;53
55;55;48;56
54;52;60;56
60;55;56;60
55;60;62;56
63;60;64;63
61;68;66;64
69;60;64;68
66;68;64;69
68;64;71;68
68;72;68;72
71;72;76;68
72;72;68;77
68;70;74;68
72;70;72;79
70;74;71;70
76;72;72;76
72;76;70;72
74;68;73;71
68;72;68;72
68;64;66;64
66;64;64;67
64;64;63;64
66;60;62;63
56;62;56;56
61;56;60;60
56;60;53;56
56;54;62;53
58;58;52;58
54;52;54;48
56;57;52;57
54;52;54;52
56;52;52;56
48;52;54;52
58;56;52;60
53;57;60;54
60;58;60;62
56;62;62;56
61;52;60;66
60;66;62;64
68;64;64;68
64;68;68;64
68;64;68;72
66;70;70;68
73;68;68;74
65;76;70;68
74;68;72;70
68;70;68;68
73;64;68;70
68;72;69;65
70;64;72;68
68;71;68;68
71;64;69;68
68;70;68;68
68;64;70;65
64;69;56;64
62;60;65;60
62;62;58;63
60;56;60;56
58;54;54;56
54;56;53;52
57;52;52;52
48;54;52;52
52;46;52;52
48;48;48;54
53;48;53;45
52;53;50;54
53;52;53;52
56;52;52;57
52;56;61;52
60;52;56;63
57;60;60;56
64;60;60;66
58;60;61;60
68;60;64;68
65;71;68;64
70;64;72;70
68;72;65;70
69;68;70;68
68;71;65;72
72;68;72;68
71;72;68;70
68;68;68;66
72;68;68;73
68;68;68;68
70;64;68;68
64;68;64;64
65;64;66;68
64;65;60;60
68;60;60;62
60;60;58;60
62;56;60;58
56;60;56;58
56;52;60;48
56;54;52;60
57;52;56;52
56;52;52;56
52;52;53;48
54;52;52;54
52;54;55;52
58;52;54;55
53;56;57;54
62;56;62;57
56;60;56;60
60;60;61;56
60;63;60;64
60;64;65;64
68;66;65;69
64;68;64;64
70;66;72;66
68;70;68;72
71;68;70;68
72;73;68;76
70;72;75;72
79;70;72;76
68;76;73;68
73;68;72;70
72;76;68;72
72;66;71;66
71;68;64;68
66;64;65;68
70;64;68;64
64;64;56;66
62;60;66;58
65;62;60;63
57;60;60;56
61;56;57;56
52;60;50;56
57;52;54;52
52;54;50;56
54;52;56;49
56;57;54;56
52;54;52;52
56;52;52;52
54;56;54;60
58;54;56;52
60;60;53;60
57;60;62;60
66;60;60;68
62;62;64;61
70;64;68;68
64;71;68;69
70;66;72;71
72;76;68;73
69;68;70;70
73;71;68;72
72;72;72;68
74;72;72;72
69;72;74;70
72;68;68;70
64;72;68;68
71;68;66;71
66;65;64;64
68;64;64;64
60;68;60;64
67;61;64;58
60;61;58;60
63;54;60;54
58;60;52;56
56;54;55;50
52;54;52;56
55;52;58;52
58;57;52;57
52;52;60;46
55;52;52;56
49;52;54;46
53;47;52;57
48;52;52;52
56;48;52;58
52;56;53;52
58;52;56;60
56;62;58;60
63;56;60;63
60;64;62;64
68;60;64;68
64;68;64;68
69;64;72;70
69;73;70;72
71;72;70;68
70;68;68;72
68;73;70;70
74;70;72;73
68;72;70;68
72;68;70;68
68;70;64;68
68;64;68;60
64;68;60;68
63;64;65;60
64;63;62;66
60;60;66;56
61;56;56;62
55;56;57;52
57;52;48;56
48;55;56;48
54;49;52;55
50;52;54;50
54;52;52;52
45;52;53;46
52;46;46;52
48;52;48;46
53;48;52;53
48;56;52;50
56;56;56;61
56;60;60;60
67;60;64;64
62;65;64;64
68;64;68;68
66;72;64;70
71;68;70;70
69;72;64;72
74;72;72;70
70;76;73;74
72;72;74;74
78;74;76;74
72;72;74;72
76;72;72;77
70;73;73;72
74;70;72;69
68;70;68;68
68;64;68;64
64;69;60;68
70;64;69;60
64;68;56;60
57;60;60;56
60;60;48;60
53;54;58;48
54;52;49;56
52;52;57;44
54;48;48;52
48;52;54;48
52;48;48;52
48;54;49;48
54;48;52;52
52;54;52;54
54;52;58;56
57;56;53;56
55;56;58;54
56;57;56;60
54;56;61;58
62;62;56;62
61;64;62;64
68;65;66;65
66;68;68;68
70;68;72;68
66;72;66;70
71;68;74;68
70;73;68;76
70;72;76;68
70;68;68;74
68;68;70;64
71;68;66;71
65;68;66;64
68;60;64;68
60;64;60;64
66;56;61;61
60;66;56;60
60;54;61;58
56;58;54;54
52;52;54;52
56;52;48;55
48;52;50;50
52;44;49;48
48;52;46;52
50;48;48;44
48;52;44;48
47;46;52;44
52;48;48;53
46;48;54;48
57;48;52;60
52;56;54;52
58;54;52;61
53;60;54;56
60;52;60;63
58;60;60;60
64;58;66;65
64;68;64;64
65;60;64;64
64;69;64;64
68;64;70;68
69;71;64;68
66;64;72;70
69;72;68;72
69;68;68;68
68;68;65;66
69;60;68;64
64;66;64;66
64;64;68;62
68;63;56;65
60;60;62;57
62;62;60;60
55;56;56;52
56;56;54;56
53;54;53;48
53;53;48;52
46;54;50;48
54;48;48;52
49;52;46;48
52;50;48;53
44;46;51;46
48;44;52;50
46;52;48;52
58;53;56;54
52;56;60;56
62;52;56;56
56;62;56;60
60;60;64;58
60;65;57;64
63;64;68;64
68;68;64;72
66;68;68;64
68;68;64;70
65;70;70;64
70;68;68;72
68;68;71;68
72;66;68;74
68;72;64;64
74;68;68;72
68;70;68;64
71;64;65;64
61;68;60;64
64;60;64;63
62;68;56;64
60;56;60;60
60;62;52;56
61;52;56;52
52;57;52;53
55;52;56;52
49;48;49;48
48;48;52;52
50;48;44;49
48;45;52;50
53;50;46;49
48;52;53;48
52;54;49;54
52;48;52;52
56;50;52;57
53;56;54;54
56;58;56;57
60;56;60;60
63;58;56;64
60;60;64;64
69;64;64;64
64;68;68;70
70;64;68;70
68;68;64;72
68;68;72;68
68;72;68;72
68;68;74;64
68;68;68;72
68;68;68;64
68;68;64;68
64;66;64;64
68;66;60;68
62;64;64;60
64;60;64;63
60;63;56;60
62;56;60;62
60;62;56;56
58;48;56;54
52;56;52;52
52;50;52;52
52;56;52;52
52;48;52;53
52;54;52;53
52;48;54;50
54;52;52;54
50;53;56;52
55;52;52;56
54;56;58;56
60;58;60;60
52;56;62;56
61;57;56;63
62;68;61;64
70;64;64;68
65;69;69;68
72;65;68;72
68;68;64;68
72;66;68;70
65;68;70;68
72;68;72;72
68;68;64;69
71;65;64;64
68;70;68;70
70;68;68;64
65;66;64;68
64;64;69;56
64;60;60;68
60;62;64;56
62;60;60;62
56;60;56;56
58;52;56;57
48;56;52;50
52;44;48;48
48;52;48;48
52;44;52;52
48;52;50;48
52;44;48;49
44;52;49;46
48;44;52;52
45;52;46;48
56;52;52;54
50;54;55;52
57;48;56;56
53;56;52;56
60;56;60;60
60;64;60;60
64;60;64;64
64;64;64;64
68;64;68;68
64;70;64;64
72;64;68;68
68;70;68;68
69;64;70;71
68;76;70;68
72;70;70;68
70;76;68;73
69;64;72;68
68;71;68;68
69;64;68;64
66;68;64;64
67;64;68;62
62;66;57;64
63;60;60;60
60;62;52;58
62;52;56;60
54;60;52;54
55;48;52;50
52;52;52;52
52;48;52;50
52;54;48;52
52;48;52;46
49;52;44;53
48;52;52;48
52;48;48;54
52;54;53;50
54;52;54;56
54;56;54;56
60;56;62;60
60;60;56;60
63;60;64;64
64;68;64;66
65;64;69;65
68;70;64;74
71;68;72;64
68;73;68;72
68;68;72;68
72;72;72;76
74;72;72;68
77;73;72;76
69;72;70;68
72;70;70;74
68;68;68;64
72;65;64;68
64;68;64;64
68;60;64;63
60;66;60;60
62;56;62;60
53;60;56;56
56;56;56;54
54;57;48;56
52;48;56;52
54;53;48;52
50;52;54;52
50;48;44;54
50;48;52;48
52;50;49;52
48;48;52;52
52;48;52;48
48;52;54;52
56;52;52;54
52;56;54;54
60;60;60;60
60;62;60;60
65;58;64;66
64;68;64;64
71;64;68;66
68;72;68;72
71;68;74;68
68;72;64;70
70;68;72;68
68;73;68;70
68;68;72;64
72;72;70;72
70;68;76;70
70;72;68;72
69;68;71;68
69;68;64;64
64;64;64;60
64;68;60;64
61;60;60;56
64;56;52;60
54;56;60;52
58;56;56;60
52;58;55;52
58;48;56;52
48;54;52;52
55;52;52;52
48;54;48;52
55;44;52;48
48;52;46;52
52;50;55;52
54;56;52;56
55;53;56;54
58;56;52;60
52;56;60;56
63;56;58;60
60;64;60;64
68;64;64;68
64;68;65;68
68;68;72;64
70;70;68;73
69;68;73;68
72;74;70;76
68;72;74;68
76;68;72;70
68;74;68;72
76;70;72;74
70;72;68;70
73;68;73;66
68;74;64;68
66;64;68;64
64;66;61;64
61;60;64;62
60;60;56;60
60;56;60;60
56;56;52;56
54;52;56;48
54;56;48;56
54;48;56;48
53;49;48;52
52;52;54;52
52;48;52;52
50;52;53;52
54;48;53;54
52;56;56;52
56;56;60;60
56;60;60;56
63;56;60;60
56;60;58;60
63;62;64;62
64;66;64;70
68;64;68;68
70;68;68;73
68;68;72;66
72;69;68;76
68;68;68;68
74;68;72;76
68;76;72;72
76;72;76;74
70;76;70;72
76;68;73;69
68;72;68;70
69;68;74;64
68;68;64;68
65;64;66;64
64;60;64;60
60;62;60;60
62;56;62;60
58;60;56;60
56;54;60;54
60;57;52;60
52;54;54;52
57;50;54;57
52;53;46;48
53;48;54;52
50;53;48;53
53;48;56;52
56;54;52;58
52;52;56;48
54;52;52;60
54;60;58;56
60;56;62;61
60;64;62;64
63;60;68;64
68;68;66;73
64;68;68;68
71;68;68;72
66;72;68;68
72;68;73;69
68;70;68;74
75;72;76;68
72;68;68;73
70;70;72;69
72;68;72;70
68;72;68;68
71;64;68;64
64;68;60;64
63;60;68;64
68;64;62;64
62;58;62;61
61;62;56;60
57;56;60;54
57;57;56;60
52;54;56;52
61;57;52;56
52;53;53;52
60;52;52;53
48;54;52;48
56;48;52;52
50;54;50;52
56;49;56;50
52;55;54;56
54;54;60;54
58;56;60;62
60;60;60;60
66;60;64;65
61;64;60;64
66;64;68;68
66;68;68;68
68;64;70;68
68;73;64;68
66;64;73;68
72;68;68;76
69;69;72;68
74;70;72;76
68;72;72;68
75;68;68;72
64;68;68;64
71;64;68;65
64;68;60;64
67;60;64;63
60;66;60;64
65;60;64;60
60;63;56;63
56;60;61;54
60;55;52;56
56;54;54;48
52;48;48;52
50;48;52;46
54;52;48;54
50;52;52;48
55;48;52;54
50;52;48;52
54;49;54;52
52;55;53;56
54;52;60;52
56;57;54;58
56;56;60;60
63;60;60;66
56;62;60;60
65;60;64;70
61;64;64;64
69;64;69;69
68;68;68;68
71;64;72;69
70;73;68;70
69;68;76;68
70;68;68;73
73;72;74;68
72;74;68;76
69;72;68;65
66;68;64;69
66;66;68;64
68;65;64;64
60;64;62;60
64;60;60;62
56;60;60;54
56;53;54;58
52;57;55;54
56;54;52;52
54;57;53;54
52;48;52;50
52;56;48;56
52;52;52;52
54;53;48;55
52;48;56;48
54;54;52;60
48;52;58;48
58;52;56;60
54;56;56;56
60;56;57;62
56;62;62;60
65;56;62;63
58;64;64;64
71;68;68;64
64;68;66;68
75;64;68;66
66;70;64;68
71;64;74;68
68;72;68;76
71;68;74;70
70;68;64;72
69;68;73;68
72;71;68;70
68;66;71;66
71;66;64;64
64;64;68;60
68;64;60;64
60;61;63;56
60;56;56;60
60;58;60;56
57;56;56;55
54;57;56;52
56;52;56;52
52;52;52;52
53;52;54;52
52;52;48;52
52;48;52;48
52;53;46;52
52;48;55;48
52;54;49;54
52;52;56;48
56;58;54;56
54;54;61;54
61;60;52;61
58;60;60;60
62;63;62;68
64;64;66;64
68;68;68;70
64;68;68;68
73;65;74;70
68;74;68;72
72;68;76;68
70;71;70;72
68;72;76;68
73;74;68;73
70;72;70;68
72;68;72;71
68;72;68;68
68;64;66;68
65;68;60;66
61;64;66;60
64;60;60;60
54;56;58;52
60;56;57;61
52;56;52;52
58;48;56;52
50;56;49;52
49;48;49;46
52;46;48;53
46;52;48;52
52;50;52;52
50;54;48;49
52;48;56;50
54;54;52;56
52;52;57;50
57;56;54;62
52;52;57;52
63;56;60;57
52;60;56;61
63;56;66;61
64;68;60;68
71;68;69;64
68;69;68;73
66;68;68;68
68;64;68;69
68;70;66;68
68;68;68;65
68;68;64;68
64;64;68;64
69;64;66;69
64;65;68;64
70;62;64;66
60;64;62;64
65;60;60;58
56;60;56;58
60;56;60;54
56;56;50;56
56;54;56;52
55;52;50;55
50;52;53;46
52;48;48;50
49;52;46;48
52;44;48;46
48;52;46;50
46;46;54;46
52;46;44;54
46;48;52;48
54;48;48;54
48;52;52;52
58;54;56;58
54;56;56;58
62;56;62;61
64;66;62;66
68;64;69;64
68;70;68;76
69;72;72;65
72;68;68;72
68;72;72;68
72;68;72;70
69;76;68;68
72;68;76;68
73;70;68;70
68;69;68;64
70;65;64;70
64;68;64;64
68;60;64;62
56;64;60;62
63;56;63;56
60;60;54;58
57;53;56;52
52;58;52;56
53;52;55;50
54;48;52;53
52;56;52;48
52;44;48;48
44;52;48;44
48;44;48;48
48;52;45;46
47;46;52;46
49;52;48;52
52;52;53;48
52;52;52;56
52;52;54;52
56;55;52;57
52;60;60;56
64;58;60;61
56;61;61;64
67;64;66;62
64;68;65;68
66;64;68;65
68;69;66;68
68;68;72;66
70;64;66;70
68;72;68;64
72;70;70;71
68;72;68;68
70;64;68;65
66;68;64;67
64;60;64;62
64;62;60;62
60;60;63;56
60;60;60;61
54;56;56;56
57;56;57;56
50;56;54;48
58;52;50;56
52;56;52;52
57;48;52;50
52;52;46;52
54;48;55;48
52;56;48;52
50;52;56;49
58;54;52;54
52;56;52;52
58;54;52;58
52;56;58;56
57;56;57;60
58;60;60;56
64;56;64;61
60;65;62;64
66;64;69;68
64;68;64;64
68;64;68;66
66;70;68;64
69;68;70;73
68;70;70;68
72;70;72;74
70;72;68;69
69;68;68;70
68;74;70;68
70;64;71;68
68;70;64;64
64;64;64;61
64;66;60;61
61;60;61;57
61;58;52;56
52;52;55;52
57;54;52;52
48;52;48;48
54;50;48;52
47;52;52;48
52;48;52;48
48;52;46;50
52;50;54;46
50;52;48;54
54;52;54;48
53;54;52;58
52;56;58;52
58;58;58;60
57;60;61;58
60;60;60;62
60;64;64;64
68;64;66;68
68;72;68;68
73;64;68;70
68;72;72;72
72;68;76;68
70;76;68;72
72;72;76;72
74;78;72;76
74;72;78;76
76;76;68;74
72;72;72;65
74;72;68;72
66;68;68;64
72;68;64;68
60;66;64;60
68;58;60;62
56;62;60;56
58;52;54;52
50;50;44;48
47;40;48;44
40;44;40;44
45;40;44;38
44;45;40;44
40;40;44;40
44;41;40;47
46;46;47;40
46;45;44;49
46;48;49;48
54;49;52;52
50;54;56;52
56;56;56;62
52;60;62;56
61;60;60;66
64;64;68;64
68;65;65;68
64;68;70;65
69;68;68;74
72;72;76;70
72;72;72;77
70;76;74;74
76;72;74;76
72;79;72;72
72;68;72;70
72;76;70;72
72;68;72;66
68;72;64;68
66;64;68;64
68;66;64;64
64;60;62;61
60;60;56;61
56;54;57;52
56;56;53;54
52;52;55;48
55;52;48;54
49;52;49;48
54;48;48;49
44;52;45;44
47;44;48;44
44;50;44;48
50;48;50;46
52;54;45;55
52;54;56;52
57;56;56;56
53;60;57;56
57;54;56;57
56;60;58;60
60;60;64;60
64;64;60;65
62;64;69;64
69;70;64;70
68;68;71;68
72;68;72;72
69;72;72;73
74;68;76;68
72;76;70;74
72;72;72;68
73;72;72;74
68;72;68;68
70;68;68;66
64;68;64;68
64;60;64;60
64;64;60;60
56;60;60;52
60;54;52;57
48;52;53;48
56;50;50;52
48;52;50;48
53;48;48;46
44;52;44;48
47;44;52;44
46;46;44;48
48;48;52;46
52;48;44;52
49;48;54;48
55;52;52;55
54;56;54;54
60;52;56;60
56;60;56;56
60;56;60;60
60;60;62;64
68;64;68;65
64;66;66;68
66;68;70;65
68;70;68;72
68;64;74;64
70;72;68;76
68;72;76;68
76;72;70;76
68;70;70;68
76;70;76;72
70;74;68;72
72;64;72;68
68;68;64;68
70;64;69;61
66;64;60;66
60;60;63;56
61;56;56;60
52;56;54;54
58;54;56;52
52;60;53;52
53;48;52;48
52;49;44;48
45;48;48;44
52;50;48;52
44;48;47;44
49;44;48;48
46;48;46;46
52;44;52;48
46;52;52;52
55;48;53;52
52;56;48;57
60;52;58;54
57;60;56;60
62;60;61;58
60;62;64;68
65;64;70;64
68;68;64;72
70;66;72;68
69;70;68;70
70;70;76;70
74;69;68;73
70;72;72;68
72;68;68;72
65;68;71;64
70;68;68;68
68;68;66;65
68;64;64;68
64;64;66;60
64;64;60;64
58;60;60;58
60;52;56;60
54;58;54;52
58;52;52;54
50;52;52;52
54;52;52;54
50;48;50;49
52;54;50;52
48;52;52;48
54;48;48;55
52;52;54;52
57;52;52;56
52;48;52;52
54;52;52;56
52;56;56;52
56;56;56;60
54;56;56;56
60;60;56;64
58;60;66;64
68;64;62;68
65;64;70;64
70;65;64;70
68;64;68;64
69;68;68;68
64;72;68;65
70;64;68;69
68;72;64;68
70;68;72;68
68;71;64;64
68;64;68;64
68;72;64;68
64;64;68;61
66;65;60;64
60;60;60;56
62;61;56;63
58;60;62;52
60;55;52;60
50;58;55;52
58;52;52;54
48;54;54;48
54;49;52;52
50;54;52;50
54;46;52;52
48;52;48;52
53;48;52;52
52;53;48;54
54;52;56;52
56;54;54;60
57;52;57;52
58;56;56;60
56;56;62;56
64;64;64;64
64;64;65;64
68;68;64;68
64;68;66;68
70;64;68;66
64;72;68;68
72;68;68;66
68;68;64;68
68;64;68;64
68;64;64;68
68;64;69;61
66;68;64;68
64;64;64;60
64;62;64;68
62;64;63;56
64;56;60;60
56;60;56;56
60;52;58;54
56;56;54;56
57;52;56;52
48;52;48;52
52;48;52;48
52;52;48;52
46;44;53;48
52;50;52;52
46;53;52;48
55;54;52;54
48;54;56;54
56;52;52;54
52;56;52;54
57;52;54;56
52;58;56;56
60;58;60;60
61;68;64;60
68;61;64;68
64;69;64;64
69;64;68;68
64;72;65;68
70;68;72;68
68;71;64;68
68;64;72;68
69;71;68;72
71;68;72;64
72;68;64;66
65;64;68;64
64;64;60;68
64;60;64;60
64;62;56;64
57;56;60;52
60;60;56;58
56;56;56;52
56;52;54;60
52;56;54;52
57;48;52;54
52;56;48;50
55;48;48;52
48;52;52;48
52;46;52;52
48;53;52;52
53;52;54;52
50;54;48;52
49;52;55;52
56;56;52;60
56;56;56;52
56;52;56;56
53;56;57;58
62;58;60;60
60;64;62;64
68;64;68;66
64;68;64;68
72;66;72;66
68;68;64;68
69;65;70;64
68;68;64;68
65;64;70;64
68;68;64;68
64;64;68;64
66;65;64;68
65;64;64;58
64;61;60;62
60;60;60;56
60;60;60;62
56;61;60;56
60;52;56;56
56;58;52;54
54;52;58;57
54;56;52;56
55;52;57;52
53;53;48;52
50;52;56;46
52;52;52;52
52;52;50;46
56;48;50;54
52;54;54;52
60;52;54;57
52;56;53;52
57;52;60;56
56;60;56;56
62;60;61;58
60;65;60;60
64;60;64;61
64;70;64;64
68;64;68;64
68;70;64;68
68;68;76;65
68;70;64;70
68;68;70;64
70;68;68;68
64;70;68;64
72;68;69;68
68;72;68;68
69;64;68;66
64;68;60;64
64;60;68;60
64;65;60;64
60;56;60;56
60;56;53;60
56;56;60;52
56;54;52;58
52;54;58;52
54;52;50;54
52;53;52;44
53;48;48;48
45;48;46;44
52;44;46;48
48;52;50;48
52;44;48;52
48;56;48;50
55;52;56;52
52;52;52;52
56;52;56;56
56;61;54;52
58;56;60;58
60;64;60;60
65;60;64;64
64;68;66;68
69;68;74;71
70;72;64;68
70;68;72;68
72;70;68;72
70;68;70;64
68;68;68;74
68;68;70;64
68;68;64;70
66;68;71;64
70;64;64;64
64;68;62;64
64;62;64;62
60;64;60;60
65;57;60;60
56;60;54;56
58;52;56;53
52;53;52;48
55;44;53;52
52;50;46;48
50;46;52;51
50;53;48;48
52;48;52;48
50;54;46;52
48;48;52;46
52;52;48;54
52;56;54;50
56;54;56;62
54;56;61;56
61;56;60;62
58;60;63;60
67;60;64;68
64;64;64;64
68;64;68;68
64;69;68;66
71;68;73;68
70;68;68;72
70;68;74;66
72;70;68;73
70;72;70;66
74;68;72;72
68;70;68;69
71;68;71;64
64;68;64;68
66;64;68;60
68;64;64;68
60;60;64;57
63;60;56;60
54;56;55;52
60;53;57;56
52;56;52;52
56;48;55;49
48;52;46;50
54;48;52;46
48;52;46;52
52;52;52;46
52;52;48;53
52;50;52;44
52;52;52;53
52;54;52;52
60;52;56;56
54;56;54;56
61;56;60;58
60;60;58;64
62;60;68;60
64;64;60;69
62;64;68;64
69;65;68;68
64;68;68;64
70;64;68;70
68;73;68;68
73;66;72;69
64;74;65;68
72;64;70;70
68;72;64;64
72;66;69;64
64;68;60;66
67;64;68;64
64;68;61;64
60;64;64;56
64;60;60;62
58;62;61;52
61;52;56;58
52;56;56;52
60;52;53;54
52;56;48;52
52;48;52;46
48;55;46;48
51;48;54;46
48;46;40;50
50;48;52;44
50;47;48;52
49;48;50;48
54;53;50;54
52;56;55;53
60;56;56;62
56;56;56;56
60;56;60;60
58;60;60;60
66;60;60;62
62;64;64;64
69;64;68;69
64;68;64;68
71;65;68;68
68;70;68;68
69;64;70;64
70;71;68;68
68;68;68;64
