## File generated by myo_cap software 
## Available from github.com/ddantas/myo_cap 
## Timestamp: 2019-02-04_16-16-39 
##  
## EMG capture settings 
##  
# sampleRate: 2000 
# channelsPerBoard: 4 
# nBoards: 1 
# bitsPerSample: 12 
# ch/%d;%d;%d;%d;lp/%d;%d;%d;%d;%d;%d;%d;%d;%d;%d;%d;%d;%d;%d;%d;
0;0;0;0;80;90;90;84;86;86;80;80;80;81;81;81;79;78;78;
0;0;0;0;80;90;90;84;86;86;80;80;80;81;81;81;79;78;78;
0;0;0;0;80;90;90;84;86;86;80;80;80;81;81;81;79;78;78;
0;0;0;0;80;90;90;84;86;86;80;80;80;81;81;81;79;78;78;
0;0;0;0;80;90;90;84;86;86;80;80;80;81;81;81;79;78;78;
0;0;0;0;80;90;90;84;86;86;80;80;80;81;81;81;79;78;78;
0;0;0;0;80;90;90;84;86;86;80;80;80;81;81;81;79;78;78;
0;0;0;0;80;90;90;84;86;86;80;80;80;81;81;81;79;78;78;
0;0;0;0;80;90;90;84;86;86;80;80;80;81;81;81;79;78;78;
0;0;0;0;80;90;90;84;86;86;80;80;80;81;81;81;79;78;78;
0;0;0;0;79;89;89;85;86;86;80;79;79;81;80;80;79;77;77;
0;0;0;0;79;89;89;85;86;86;80;79;79;81;80;80;79;77;77;
0;0;0;0;81;88;88;85;86;86;81;80;80;81;80;80;77;75;75;
0;0;0;0;81;87;87;86;86;86;81;80;80;81;80;80;76;74;74;
0;0;0;0;81;87;87;86;86;86;81;80;80;81;80;80;76;74;74;
0;0;0;0;82;87;87;86;86;86;82;81;81;81;80;80;76;74;74;
0;0;0;0;82;87;87;86;86;86;82;81;81;81;80;80;76;74;74;
0;0;0;0;82;87;87;86;86;86;82;81;81;81;80;80;76;74;74;
0;0;0;0;82;87;87;86;86;86;82;81;81;81;80;80;76;74;74;
0;0;0;0;82;87;87;86;86;86;82;81;81;81;80;80;76;74;74;
0;0;0;0;82;87;87;86;86;86;82;81;81;81;80;80;76;74;74;
0;0;0;0;82;87;87;86;86;86;82;81;81;81;80;80;76;74;74;
0;0;0;0;82;87;87;86;86;86;82;81;81;81;80;80;76;74;74;
0;0;0;0;82;87;87;86;86;86;82;81;81;81;80;80;76;74;74;
0;0;0;0;82;87;87;86;86;86;82;81;81;81;80;80;76;74;74;
0;0;0;0;82;87;87;86;86;86;82;81;81;81;80;80;76;74;74;
0;0;0;0;82;87;87;86;86;86;82;81;81;81;80;80;76;74;74;
0;0;0;0;82;87;87;86;86;86;82;81;81;81;80;80;76;74;74;
0;0;0;0;82;87;87;86;86;86;82;81;81;81;80;80;76;74;74;
0;0;0;0;82;87;87;86;86;86;82;81;81;81;80;80;76;74;74;
0;0;0;0;82;87;87;86;86;86;82;81;81;81;80;80;76;74;74;
0;0;0;0;82;87;87;86;86;86;82;81;81;81;80;80;76;74;74;
0;0;0;0;82;87;87;86;86;86;82;81;81;81;80;80;76;74;74;
0;0;0;0;82;87;87;86;86;86;82;81;81;81;80;80;76;74;74;
0;0;0;0;82;87;87;86;86;86;82;81;81;81;80;80;76;74;74;
0;0;0;0;82;87;87;86;86;86;82;81;81;81;80;80;76;74;74;
0;0;0;0;82;87;87;86;86;86;82;81;81;81;80;80;76;74;74;
0;0;0;0;82;87;87;86;86;86;82;81;81;81;80;80;76;74;74;
0;0;0;0;82;87;87;86;86;86;82;81;81;81;80;80;76;74;74;
0;0;0;0;82;87;87;86;86;86;82;81;81;81;80;80;76;74;74;
0;0;0;0;82;87;87;86;86;86;82;81;81;81;80;80;76;74;74;
0;0;0;0;82;87;87;86;86;86;82;81;81;81;80;80;76;74;74;
0;0;0;0;82;87;87;86;86;86;82;81;81;81;80;80;76;74;74;
0;0;0;0;84;88;88;86;87;87;83;83;83;81;81;81;75;73;73;
0;0;0;0;84;88;88;86;87;87;83;83;83;81;81;81;75;73;73;
0;0;0;0;84;88;88;86;87;87;83;83;83;81;81;81;75;73;73;
0;0;0;0;84;88;88;86;87;87;83;83;83;81;81;81;75;73;73;
0;0;0;0;84;88;88;86;87;87;83;83;83;81;81;81;75;73;73;
0;0;0;0;84;88;88;86;87;87;83;83;83;81;81;81;75;73;73;
0;0;0;0;84;88;88;86;87;87;83;83;83;81;81;81;75;73;73;
0;0;0;0;84;88;88;86;87;87;83;83;83;81;81;81;75;73;73;
0;0;0;0;84;88;88;86;87;87;83;83;83;81;81;81;75;73;73;
0;0;0;0;84;88;88;86;87;87;83;83;83;81;81;81;75;73;73;
0;0;0;0;84;88;88;86;87;87;83;83;83;81;81;81;75;73;73;
0;0;0;0;84;88;88;86;87;87;83;83;83;81;81;81;75;73;73;
0;0;0;0;84;88;88;86;87;87;83;83;83;81;81;81;75;73;73;
0;0;0;0;84;88;88;86;87;87;83;83;83;81;81;81;75;73;73;
0;0;0;0;84;88;88;86;87;87;83;83;83;81;81;81;75;73;73;
0;0;0;0;84;88;88;86;87;87;83;83;83;81;81;81;75;73;73;
0;0;0;0;84;88;88;86;87;87;83;83;83;81;81;81;75;73;73;
0;0;0;0;84;88;88;86;87;87;83;83;83;81;81;81;75;73;73;
0;0;0;0;84;88;88;86;87;87;83;83;83;81;81;81;75;73;73;
0;0;0;0;84;88;88;86;87;87;83;83;83;81;81;81;75;73;73;
0;0;0;0;84;88;88;86;87;87;83;83;83;81;81;81;75;73;73;
0;0;0;0;84;88;88;86;87;87;83;83;83;81;81;81;75;73;73;
0;0;0;0;84;88;88;86;87;87;83;83;83;81;81;81;75;73;73;
0;0;0;0;84;88;88;86;87;87;83;83;83;81;81;81;75;73;73;
0;0;0;0;84;88;88;86;87;87;83;83;83;81;81;81;75;73;73;
0;0;0;0;84;88;88;86;87;87;83;83;83;81;81;81;75;73;73;
0;0;0;0;84;88;88;86;87;87;83;83;83;81;81;81;75;73;73;
0;0;0;0;84;88;88;86;87;87;83;83;83;81;81;81;75;73;73;
0;0;0;0;84;88;88;86;87;87;83;83;83;81;81;81;75;73;73;
0;0;0;0;84;88;88;86;87;87;83;83;83;81;81;81;75;73;73;
0;0;0;0;84;88;88;86;87;87;83;83;83;81;81;81;75;73;73;
0;0;0;0;84;88;88;86;87;87;83;83;83;81;81;81;75;73;73;
0;0;0;0;84;88;88;86;87;87;83;83;83;81;81;81;75;73;73;
0;0;0;0;84;88;88;86;87;87;83;83;83;81;81;81;75;73;73;
0;0;0;0;84;88;88;86;87;87;83;83;83;81;81;81;75;73;73;
0;0;0;0;84;88;88;86;87;87;83;83;83;81;81;81;75;73;73;
0;0;0;0;84;88;88;86;87;87;83;83;83;81;81;81;75;73;73;
0;0;0;0;84;88;88;86;87;87;83;83;83;81;81;81;75;73;73;
0;0;0;0;84;88;88;86;87;87;83;83;83;81;81;81;75;73;73;
0;0;0;0;84;88;88;86;87;87;83;83;83;81;81;81;75;73;73;
0;0;0;0;84;88;88;86;87;87;83;83;83;81;81;81;75;73;73;
0;0;0;0;84;88;88;86;87;87;83;83;83;81;81;81;75;73;73;
0;0;0;0;84;88;88;86;87;87;83;83;83;81;81;81;75;73;73;
0;0;0;0;84;88;88;86;87;87;83;83;83;81;81;81;75;73;73;
0;0;0;0;84;88;88;86;87;87;83;83;83;81;81;81;75;73;73;
0;0;0;0;84;88;88;86;87;87;83;83;83;81;81;81;75;73;73;
0;0;0;0;84;88;88;86;87;87;83;83;83;81;81;81;75;73;73;
0;0;0;0;84;88;88;86;87;87;83;83;83;81;81;81;75;73;73;
0;0;0;0;84;88;88;86;87;87;83;83;83;81;81;81;75;73;73;
0;0;0;0;84;88;88;86;87;87;83;83;83;81;81;81;75;73;73;
0;0;0;0;84;88;88;86;87;87;83;83;83;81;81;81;75;73;73;
0;0;0;0;84;88;88;86;87;87;83;83;83;81;81;81;75;73;73;
0;0;0;0;84;88;88;86;87;87;83;83;83;81;81;81;75;73;73;
0;0;0;0;84;88;88;86;87;87;83;83;83;81;81;81;75;73;73;
0;0;0;0;84;88;88;86;87;87;83;83;83;81;81;81;75;73;73;
0;0;0;0;84;88;88;86;87;87;83;83;83;81;81;81;75;73;73;
0;0;0;0;84;88;88;86;87;87;83;83;83;81;81;81;75;73;73;
0;0;0;0;84;88;88;86;87;87;83;83;83;81;81;81;75;73;73;
0;0;0;0;84;88;88;86;87;87;83;83;83;81;81;81;75;73;73;
0;0;0;0;85;87;87;87;87;87;84;83;83;82;81;81;74;73;73;
0;0;0;0;85;87;87;87;87;87;84;83;83;82;81;81;74;73;73;
0;0;0;0;85;87;87;87;87;87;84;83;83;82;81;81;74;73;73;
0;0;0;0;85;87;87;87;87;87;84;83;83;82;81;81;74;73;73;
0;0;0;0;85;87;87;87;87;87;84;83;83;82;81;81;74;73;73;
0;0;0;0;85;87;87;87;87;87;84;84;84;82;81;81;74;73;73;
0;0;0;0;86;87;87;87;87;87;84;84;84;82;81;81;74;73;73;
0;0;0;0;86;87;87;87;87;87;84;84;84;82;81;81;74;73;73;
0;0;0;0;86;87;87;87;87;87;84;84;84;82;81;81;74;73;73;
0;0;0;0;86;87;87;87;87;87;84;84;84;82;81;81;74;73;73;
0;0;0;0;86;87;87;87;87;87;84;84;84;82;81;81;74;73;73;
0;0;0;0;86;87;87;87;87;87;84;84;84;82;81;81;74;73;73;
0;0;0;0;86;87;87;87;87;87;84;84;84;82;81;81;74;73;73;
0;0;0;0;86;87;87;87;87;87;84;84;84;82;81;81;74;73;73;
0;0;0;0;86;87;87;87;87;87;84;84;84;82;81;81;74;73;73;
0;0;0;0;86;87;87;87;87;87;84;84;84;82;81;81;74;73;73;
0;0;0;0;86;87;87;87;87;87;84;84;84;82;81;81;74;73;73;
0;0;0;0;86;87;87;87;87;87;84;84;84;82;81;81;74;73;73;
0;0;0;0;86;87;87;87;87;87;84;84;84;82;81;81;74;73;73;
0;0;0;0;86;87;87;87;87;87;84;84;84;82;81;81;74;73;73;
0;0;0;0;86;87;87;87;87;87;84;84;84;82;81;81;74;73;73;
0;0;0;0;86;87;87;87;87;87;84;84;84;82;81;81;74;73;73;
0;0;0;0;86;87;87;87;87;87;84;84;84;82;81;81;74;73;73;
0;0;0;0;86;87;87;87;87;87;84;84;84;82;81;81;74;73;73;
0;0;0;0;87;87;87;87;87;87;84;84;84;82;82;82;74;73;73;
0;0;0;0;87;87;87;87;87;87;84;84;84;82;82;82;74;73;73;
0;0;0;0;87;87;87;87;87;87;84;84;84;82;82;82;74;73;73;
0;0;0;0;87;87;87;87;87;87;84;84;84;82;82;82;74;73;73;
0;0;0;0;87;87;87;87;87;87;84;84;84;82;82;82;74;73;73;
0;0;0;0;87;87;87;87;87;87;84;84;84;82;82;82;74;73;73;
0;0;0;0;87;87;87;87;87;87;84;84;84;82;82;82;74;73;73;
0;0;0;0;87;87;87;87;87;87;84;84;84;82;82;82;74;73;73;
0;0;0;0;87;87;87;87;87;87;84;84;84;82;82;82;74;73;73;
0;0;0;0;87;87;87;87;87;87;84;84;84;82;82;82;74;73;73;
0;0;0;0;87;87;87;87;87;87;84;84;84;82;82;82;74;73;73;
0;0;0;0;87;87;87;87;87;87;84;84;84;82;82;82;74;73;73;
0;0;0;0;87;87;87;87;87;87;84;84;84;82;82;82;74;73;73;
0;0;0;0;87;87;87;87;87;87;84;84;84;82;82;82;74;73;73;
0;0;0;0;87;87;87;87;87;87;84;84;84;82;82;82;74;73;73;
0;0;0;0;87;87;87;87;87;87;84;84;84;82;82;82;74;73;73;
0;0;0;0;87;87;87;87;87;87;84;84;84;82;82;82;74;73;73;
0;0;0;0;87;87;87;87;87;87;84;84;84;82;82;82;74;73;73;
0;0;0;0;87;87;87;87;87;87;84;84;84;82;82;82;74;73;73;
0;0;0;0;87;87;87;87;87;87;84;84;84;82;82;82;74;73;73;
0;0;0;0;87;87;87;87;87;87;84;84;84;82;82;82;74;73;73;
0;0;0;0;87;87;87;87;87;87;84;84;84;82;82;82;74;73;73;
0;0;0;0;87;87;87;87;87;87;84;84;84;82;82;82;74;73;73;
0;0;0;0;87;87;87;87;87;87;84;84;84;82;82;82;74;73;73;
0;0;0;0;87;87;87;87;87;87;84;84;84;82;82;82;74;73;73;
0;0;0;0;87;87;87;87;87;87;84;84;84;82;82;82;74;73;73;
0;0;0;0;87;87;87;87;87;87;84;84;84;82;82;82;74;73;73;
0;0;0;0;87;87;87;87;87;87;84;84;84;82;82;82;74;73;73;
0;0;0;0;87;87;87;87;87;87;84;84;84;82;82;82;74;73;73;
0;0;0;0;87;87;87;87;87;87;84;84;84;82;82;82;74;73;73;
0;0;0;0;87;87;87;87;87;87;84;84;84;82;82;82;74;73;73;
0;0;0;0;87;87;87;87;87;87;84;84;84;82;82;82;74;73;73;
0;0;0;0;87;87;87;87;87;87;84;84;84;82;82;82;74;73;73;
0;0;0;0;87;87;87;87;87;87;84;84;84;82;82;82;74;73;73;
0;0;0;0;87;87;87;87;87;87;84;84;84;82;82;82;74;73;73;
0;0;0;0;87;87;87;87;87;87;84;84;84;82;82;82;74;73;73;
0;0;0;0;87;87;87;87;87;87;84;84;84;82;82;82;74;73;73;
0;0;0;0;87;87;87;87;87;87;84;84;84;82;82;82;74;73;73;
0;0;0;0;87;87;87;87;87;87;84;84;84;82;82;82;74;73;73;
0;0;0;0;87;87;87;87;87;87;84;84;84;82;82;82;74;73;73;
0;0;0;0;87;87;87;87;87;87;84;84;84;82;82;82;74;73;73;
0;0;0;0;87;87;87;87;87;87;84;84;84;82;82;82;74;73;73;
0;0;0;0;87;87;87;87;87;87;84;84;84;82;82;82;74;73;73;
0;0;0;0;87;87;87;87;87;87;84;84;84;82;82;82;74;73;73;
0;0;0;0;87;87;87;87;87;87;84;84;84;82;82;82;74;73;73;
0;0;0;0;87;87;87;87;87;87;84;84;84;82;82;82;74;73;73;
0;0;0;0;87;87;87;87;87;87;84;84;84;82;82;82;74;73;73;
0;0;0;0;87;87;87;87;87;87;84;84;84;82;82;82;74;73;73;
0;0;0;0;89;87;87;86;87;87;85;84;84;83;83;83;74;73;73;
0;0;0;0;89;87;87;86;87;87;85;84;84;83;83;83;74;73;73;
0;0;0;0;89;87;87;86;87;87;85;84;84;83;83;83;74;73;73;
0;0;0;0;89;87;87;86;87;87;85;84;84;83;83;83;74;73;73;
0;0;0;0;89;87;87;86;87;87;85;84;84;83;83;83;74;73;73;
0;0;0;0;89;87;87;86;87;87;85;85;85;83;83;83;74;73;73;
0;0;0;0;89;87;87;86;87;87;85;85;85;83;83;83;74;73;73;
0;0;0;0;89;87;87;86;87;87;85;85;85;83;83;83;74;73;73;
0;0;0;0;89;87;87;86;88;88;85;85;85;84;83;83;74;73;73;
0;0;0;0;89;87;87;86;88;88;85;85;85;84;83;83;74;73;73;
0;0;0;0;89;87;87;87;88;88;85;85;85;84;83;83;74;74;74;
0;0;0;0;89;87;87;87;88;88;85;85;85;84;83;83;74;74;74;
0;0;0;0;89;87;87;87;88;88;85;85;85;84;83;83;74;74;74;
0;0;0;0;89;87;87;87;88;88;85;85;85;84;83;83;74;74;74;
0;0;0;0;89;87;87;87;88;88;85;85;85;84;83;83;74;74;74;
0;0;0;0;89;87;87;87;88;88;85;85;85;84;83;83;74;74;74;
0;0;0;0;89;87;87;87;88;88;85;85;85;84;83;83;74;74;74;
0;0;0;0;89;87;87;87;88;88;85;85;85;84;83;83;74;74;74;
0;0;0;0;89;87;87;87;88;88;85;85;85;84;83;83;74;74;74;
0;0;0;0;89;87;87;87;88;88;85;85;85;84;83;83;74;74;74;
0;0;0;0;89;87;87;87;88;88;85;85;85;84;83;83;74;74;74;
0;0;0;0;89;87;87;87;88;88;85;85;85;84;83;83;74;74;74;
0;0;0;0;89;87;87;87;88;88;85;85;85;84;83;83;74;74;74;
0;0;0;0;89;87;87;87;88;88;85;85;85;84;83;83;74;74;74;
0;0;0;0;89;87;87;87;88;88;85;85;85;84;83;83;74;74;74;
0;0;0;0;89;87;87;88;88;88;86;85;85;84;84;84;75;74;74;
0;0;0;0;89;87;87;88;88;88;86;85;85;84;84;84;75;74;74;
0;0;0;0;89;87;87;88;89;89;87;86;86;85;84;84;75;74;74;
0;0;0;0;89;86;86;89;89;89;87;87;87;86;85;85;76;75;75;
0;0;0;0;89;86;86;89;89;89;87;87;87;86;85;85;76;75;75;
0;0;0;0;89;86;86;89;89;89;87;87;87;86;85;85;76;75;75;
0;0;0;0;89;86;86;89;89;89;87;87;87;86;85;85;76;75;75;
0;0;0;0;89;86;86;89;89;89;87;87;87;86;85;85;76;75;75;
0;0;0;0;89;86;86;89;89;89;87;87;87;86;85;85;76;75;75;
0;0;0;0;89;86;86;89;89;89;87;87;87;86;85;85;76;75;75;
0;0;0;0;89;86;86;89;89;89;87;87;87;86;85;85;76;75;75;
0;0;0;0;89;86;86;89;89;89;87;87;87;87;86;86;76;75;75;
0;0;0;0;89;86;86;89;89;89;87;87;87;87;86;86;76;75;75;
0;0;0;0;89;86;86;89;89;89;87;87;87;87;86;86;76;75;75;
0;0;0;0;89;86;86;89;89;89;87;87;87;87;86;86;76;75;75;
0;0;0;0;89;86;86;89;89;89;87;87;87;87;86;86;76;75;75;
0;0;0;0;89;86;86;89;89;89;87;87;87;87;86;86;76;75;75;
0;0;0;0;89;86;86;89;89;89;87;87;87;87;86;86;76;75;75;
0;0;0;0;89;86;86;89;89;89;87;87;87;87;86;86;76;75;75;
0;0;0;0;89;86;86;89;89;89;87;87;87;87;86;86;76;75;75;
0;0;0;0;89;86;86;89;89;89;87;87;87;87;86;86;76;75;75;
0;0;0;0;89;86;86;89;89;89;87;87;87;87;86;86;76;75;75;
0;0;0;0;89;86;86;89;89;89;87;87;87;87;86;86;76;75;75;
0;0;0;0;89;86;86;89;89;89;87;87;87;87;86;86;76;75;75;
0;0;0;0;89;86;86;89;89;89;87;87;87;87;86;86;76;75;75;
0;0;0;0;89;86;86;89;89;89;87;87;87;87;86;86;76;75;75;
0;0;0;0;89;86;86;89;89;89;87;87;87;87;86;86;76;75;75;
0;0;0;0;89;86;86;89;89;89;87;87;87;87;86;86;76;75;75;
0;0;0;0;89;86;86;89;89;89;87;87;87;87;86;86;76;75;75;
0;0;0;0;89;86;86;89;89;89;87;87;87;87;86;86;76;75;75;
0;0;0;0;89;86;86;89;89;89;87;87;87;87;86;86;76;75;75;
0;0;0;0;89;86;86;88;89;89;86;87;87;87;86;86;77;76;76;
0;0;0;0;89;86;86;88;89;89;86;87;87;87;86;86;77;76;76;
0;0;0;0;89;86;86;88;89;89;86;87;87;87;86;86;78;76;76;
0;0;0;0;89;86;86;88;89;89;86;87;87;87;86;86;78;76;76;
0;0;0;0;89;86;86;88;89;89;86;87;87;87;86;86;78;76;76;
0;0;0;0;89;86;86;88;89;89;86;87;87;87;86;86;78;76;76;
0;0;0;0;89;86;86;88;89;89;86;87;87;87;86;86;78;76;76;
0;0;0;0;89;86;86;88;89;89;86;87;87;87;86;86;78;76;76;
0;0;0;0;89;86;86;88;89;89;86;87;87;87;87;87;79;77;77;
0;0;0;0;89;86;86;88;89;89;86;87;87;87;87;87;79;77;77;
0;0;0;0;89;86;86;88;89;89;86;87;87;87;87;87;79;77;77;
0;0;0;0;89;86;86;88;89;89;86;87;87;87;87;87;79;77;77;
0;0;0;0;89;86;86;88;89;89;86;87;87;87;87;87;79;77;77;
0;0;0;0;89;86;86;88;89;89;86;87;87;87;87;87;79;77;77;
0;0;0;0;89;86;86;88;89;89;86;87;87;87;87;87;79;77;77;
0;0;0;0;89;86;86;88;89;89;86;87;87;87;87;87;79;77;77;
0;0;0;0;89;86;86;88;89;89;86;87;87;87;87;87;79;77;77;
0;0;0;0;90;86;86;87;89;89;85;87;87;87;86;86;80;78;78;
0;0;0;0;90;86;86;87;89;89;85;87;87;87;86;86;80;78;78;
0;0;0;0;90;86;86;87;89;89;85;87;87;87;86;86;80;78;78;
0;0;0;0;90;86;86;87;89;89;85;87;87;87;86;86;80;78;78;
0;0;0;0;90;86;86;87;89;89;85;87;87;87;86;86;80;78;78;
0;0;0;0;90;86;86;87;89;89;85;87;87;87;86;86;80;78;78;
0;0;0;0;90;86;86;87;89;89;85;87;87;87;86;86;80;78;78;
0;0;0;0;90;86;86;87;89;89;85;87;87;87;86;86;80;78;78;
0;0;0;0;90;86;86;87;89;89;85;87;87;87;86;86;80;78;78;
0;0;0;0;90;86;86;87;89;89;85;87;87;87;86;86;80;78;78;
0;0;0;0;90;86;86;87;89;89;85;87;87;87;86;86;80;78;78;
0;0;0;0;90;86;86;87;89;89;85;87;87;87;86;86;80;78;78;
0;0;0;0;90;86;86;87;89;89;85;87;87;87;86;86;80;78;78;
0;0;0;0;90;86;86;87;89;89;85;87;87;87;86;86;80;78;78;
0;0;0;0;90;86;86;87;89;89;85;87;87;87;86;86;80;78;78;
0;0;0;0;90;86;86;87;89;89;85;87;87;87;86;86;80;78;78;
0;0;0;0;90;86;86;87;89;89;85;87;87;87;86;86;80;78;78;
0;0;0;0;90;86;86;87;89;89;85;87;87;87;86;86;80;78;78;
0;0;0;0;90;86;86;87;89;89;85;87;87;87;86;86;80;78;78;
0;0;0;0;90;85;85;87;88;88;85;87;87;87;86;86;80;78;78;
0;0;0;0;90;85;85;87;88;88;85;87;87;87;86;86;80;78;78;
0;0;0;0;90;85;85;87;88;88;85;87;87;87;86;86;80;78;78;
0;0;0;0;90;85;85;86;88;88;85;86;86;87;86;86;80;78;78;
0;0;0;0;90;85;85;86;88;88;85;86;86;87;86;86;80;78;78;
0;0;0;0;90;85;85;86;88;88;85;86;86;87;86;86;80;78;78;
0;0;0;0;90;85;85;86;88;88;85;86;86;87;86;86;80;78;78;
0;0;0;0;90;85;85;86;88;88;85;86;86;87;86;86;80;78;78;
0;0;0;0;90;85;85;86;88;88;85;86;86;87;86;86;80;78;78;
0;0;0;0;91;85;85;86;88;88;85;86;86;86;86;86;80;78;78;
0;0;0;0;91;85;85;86;88;88;85;86;86;86;86;86;80;78;78;
0;0;0;0;91;85;85;86;88;88;85;86;86;86;86;86;80;78;78;
0;0;0;0;91;85;85;86;88;88;85;86;86;86;86;86;80;78;78;
0;0;0;0;91;85;85;86;88;88;85;86;86;86;86;86;80;78;78;
0;0;0;0;91;85;85;86;88;88;85;86;86;86;86;86;80;78;78;
0;0;0;0;91;85;85;86;88;88;85;86;86;86;86;86;80;78;78;
0;0;0;0;91;85;85;86;88;88;85;86;86;86;86;86;80;78;78;
0;0;0;0;91;85;85;86;88;88;85;86;86;86;86;86;80;78;78;
0;0;0;0;91;85;85;86;88;88;85;86;86;86;86;86;80;78;78;
0;0;0;0;91;85;85;86;88;88;85;86;86;86;86;86;80;78;78;
0;0;0;0;91;85;85;86;88;88;85;86;86;86;86;86;80;78;78;
0;0;0;0;91;85;85;86;88;88;85;86;86;86;86;86;80;78;78;
0;0;0;0;91;85;85;86;88;88;85;86;86;86;86;86;80;78;78;
0;0;0;0;91;85;85;86;88;88;85;86;86;86;86;86;80;78;78;
0;0;0;0;91;85;85;86;89;89;85;86;86;86;86;86;80;78;78;
0;0;0;0;91;85;85;86;89;89;85;86;86;86;86;86;80;78;78;
0;0;0;0;91;85;85;86;89;89;85;86;86;86;86;86;80;78;78;
0;0;0;0;91;85;85;86;89;89;85;86;86;86;86;86;80;78;78;
0;0;0;0;91;85;85;86;89;89;85;86;86;86;86;86;80;78;78;
0;0;0;0;91;85;85;86;89;89;85;86;86;86;86;86;80;78;78;
0;0;0;0;91;85;85;86;89;89;85;86;86;86;86;86;80;78;78;
0;0;0;0;91;85;85;86;89;89;85;86;86;86;86;86;80;78;78;
0;0;0;0;91;85;85;86;89;89;85;86;86;86;86;86;80;78;78;
0;0;0;0;91;85;85;86;89;89;85;86;86;86;86;86;80;78;78;
0;0;0;0;91;85;85;86;89;89;85;86;86;86;86;86;80;78;78;
0;0;0;0;91;85;85;86;89;89;85;86;86;86;86;86;80;78;78;
0;0;0;0;91;85;85;86;89;89;85;86;86;86;86;86;80;78;78;
0;0;0;0;91;85;85;86;89;89;85;86;86;86;86;86;80;78;78;
0;0;0;0;91;85;85;86;89;89;85;86;86;86;86;86;80;78;78;
0;0;0;0;91;85;85;86;89;89;85;86;86;86;86;86;80;78;78;
0;0;0;0;91;85;85;86;89;89;85;86;86;86;86;86;80;78;78;
0;0;0;0;91;85;85;86;89;89;85;86;86;86;86;86;80;78;78;
0;0;0;0;91;85;85;86;89;89;85;86;86;86;86;86;80;78;78;
0;0;0;0;91;85;85;86;89;89;85;86;86;86;86;86;80;78;78;
0;0;0;0;91;85;85;86;89;89;85;86;86;86;86;86;80;78;78;
0;0;0;0;91;85;85;86;89;89;85;86;86;86;86;86;80;78;78;
0;0;0;0;91;85;85;86;89;89;85;86;86;86;86;86;80;78;78;
0;0;0;0;91;85;85;86;89;89;85;86;86;86;86;86;80;78;78;
0;0;0;0;91;85;85;86;89;89;85;86;86;86;86;86;80;78;78;
0;0;0;0;91;85;85;86;89;89;85;86;86;86;86;86;80;78;78;
0;0;0;0;91;85;85;86;89;89;85;86;86;86;86;86;80;78;78;
0;0;0;0;91;85;85;86;89;89;85;86;86;86;86;86;80;78;78;
0;0;0;0;91;85;85;86;89;89;85;86;86;86;86;86;80;78;78;
0;0;0;0;91;85;85;86;89;89;85;86;86;86;86;86;80;78;78;
0;0;0;0;91;85;85;86;89;89;85;86;86;86;86;86;80;78;78;
0;0;0;0;91;85;85;86;89;89;85;86;86;86;86;86;80;78;78;
0;0;0;0;91;85;85;86;89;89;85;86;86;86;86;86;80;78;78;
0;0;0;0;91;85;85;86;89;89;85;86;86;86;86;86;80;78;78;
0;0;0;0;91;85;85;86;89;89;85;86;86;86;86;86;80;78;78;
0;0;0;0;91;85;85;86;89;89;85;86;86;86;86;86;80;78;78;
0;0;0;0;91;85;85;86;89;89;85;86;86;86;86;86;80;78;78;
0;0;0;0;91;85;85;86;89;89;85;86;86;86;86;86;80;78;78;
0;0;0;0;91;85;85;86;89;89;85;86;86;86;86;86;80;78;78;
0;0;0;0;91;85;85;86;89;89;85;86;86;86;86;86;80;78;78;
0;0;0;0;91;85;85;86;89;89;85;86;86;86;86;86;80;78;78;
0;0;0;0;91;85;85;86;89;89;85;86;86;86;86;86;80;78;78;
0;0;0;0;91;85;85;86;89;89;85;86;86;86;86;86;80;78;78;
0;0;0;0;91;85;85;86;89;89;85;86;86;86;86;86;80;78;78;
0;0;0;0;91;85;85;86;89;89;85;86;86;86;86;86;80;78;78;
0;0;0;0;91;85;85;86;89;89;85;86;86;86;86;86;80;78;78;
0;0;0;0;91;85;85;86;89;89;85;86;86;86;86;86;80;78;78;
0;0;0;0;91;85;85;86;89;89;85;86;86;86;86;86;80;78;78;
0;0;0;0;91;85;85;86;89;89;85;86;86;86;86;86;80;78;78;
0;0;0;0;91;85;85;86;89;89;85;86;86;86;86;86;80;78;78;
0;0;0;0;91;85;85;86;89;89;85;86;86;86;86;86;80;78;78;
0;0;0;0;91;85;85;86;89;89;85;86;86;86;86;86;80;78;78;
0;0;0;0;91;85;85;86;89;89;85;86;86;86;86;86;80;78;78;
0;0;0;0;91;85;85;86;89;89;85;86;86;86;86;86;80;78;78;
0;0;0;0;91;85;85;86;89;89;85;86;86;86;86;86;80;78;78;
0;0;0;0;91;85;85;86;89;89;85;86;86;86;86;86;80;78;78;
0;0;0;0;91;85;85;87;89;89;85;86;86;86;86;86;81;79;79;
0;0;0;0;91;85;85;87;89;89;85;86;86;86;86;86;81;79;79;
0;0;0;0;91;85;85;87;89;89;85;86;86;86;86;86;81;79;79;
0;0;0;0;91;85;85;87;89;89;85;86;86;86;86;86;81;79;79;
0;0;0;0;91;85;85;87;89;89;85;86;86;86;86;86;81;79;79;
0;0;0;0;91;85;85;87;89;89;85;86;86;86;86;86;81;79;79;
0;0;0;0;91;85;85;87;89;89;85;86;86;86;86;86;81;79;79;
0;0;0;0;91;85;85;87;89;89;85;86;86;86;86;86;81;79;79;
0;0;0;0;91;85;85;87;89;89;85;86;86;86;86;86;81;79;79;
0;0;0;0;91;85;85;87;89;89;85;86;86;86;86;86;81;79;79;
0;0;0;0;91;85;85;87;89;89;85;86;86;86;86;86;81;79;79;
0;0;0;0;91;85;85;87;89;89;85;86;86;86;86;86;81;79;79;
0;0;0;0;91;85;85;87;89;89;85;86;86;86;86;86;81;79;79;
0;0;0;0;91;85;85;87;89;89;85;86;86;86;86;86;81;79;79;
0;0;0;0;91;85;85;87;89;89;85;86;86;86;86;86;81;79;79;
0;0;0;0;91;85;85;87;89;89;84;86;86;87;86;86;81;79;79;
0;0;0;0;91;85;85;87;89;89;84;86;86;87;86;86;81;79;79;
0;0;0;0;91;85;85;87;89;89;84;86;86;87;86;86;81;79;79;
0;0;0;0;91;85;85;87;89;89;84;86;86;87;86;86;81;79;79;
0;0;0;0;91;85;85;87;89;89;84;86;86;87;86;86;81;79;79;
0;0;0;0;91;85;85;87;89;89;84;86;86;87;86;86;81;79;79;
0;0;0;0;91;85;85;87;89;89;84;86;86;87;86;86;81;79;79;
0;0;0;0;91;85;85;87;89;89;84;86;86;87;86;86;81;79;79;
0;0;0;0;91;85;85;87;89;89;84;86;86;87;86;86;81;79;79;
0;0;0;0;91;85;85;87;89;89;84;86;86;87;86;86;81;79;79;
0;0;0;0;91;85;85;87;89;89;84;86;86;87;86;86;81;79;79;
0;0;0;0;91;85;85;87;89;89;84;86;86;87;86;86;81;79;79;
0;0;0;0;91;85;85;87;89;89;84;86;86;87;86;86;81;79;79;
0;0;0;0;91;85;85;87;89;89;84;86;86;87;86;86;81;79;79;
0;0;0;0;91;85;85;87;89;89;84;86;86;87;86;86;81;79;79;
0;0;0;0;91;85;85;87;89;89;84;86;86;87;86;86;81;79;79;
0;0;0;0;91;85;85;87;89;89;84;86;86;87;86;86;81;79;79;
0;0;0;0;91;85;85;87;89;89;84;86;86;87;86;86;81;79;79;
0;0;0;0;91;85;85;87;89;89;84;86;86;87;86;86;81;79;79;
0;0;0;0;91;85;85;87;89;89;84;86;86;87;86;86;81;79;79;
0;0;0;0;91;85;85;87;89;89;84;86;86;87;86;86;81;79;79;
0;0;0;0;92;85;85;88;89;89;84;86;86;86;87;87;81;79;79;
0;0;0;0;92;85;85;88;89;89;83;86;86;86;87;87;81;79;79;
0;0;0;0;93;85;85;88;89;89;83;85;85;86;87;87;82;80;80;
0;0;0;0;93;85;85;88;89;89;83;85;85;86;87;87;82;80;80;
0;0;0;0;93;85;85;88;89;89;83;85;85;86;87;87;82;80;80;
0;0;0;0;93;85;85;88;89;89;83;85;85;86;87;87;82;80;80;
0;0;0;0;93;85;85;88;89;89;83;85;85;86;87;87;82;80;80;
0;0;0;0;93;85;85;88;89;89;83;85;85;86;87;87;82;80;80;
0;0;0;0;93;85;85;88;89;89;83;85;85;86;87;87;82;80;80;
0;0;0;0;93;85;85;88;89;89;83;85;85;86;87;87;82;80;80;
0;0;0;0;93;85;85;88;89;89;83;85;85;86;87;87;82;80;80;
0;0;0;0;93;85;85;88;89;89;83;85;85;86;87;87;82;80;80;
0;0;0;0;93;85;85;88;89;89;83;85;85;86;87;87;82;80;80;
0;0;0;0;93;85;85;88;89;89;83;85;85;86;87;87;82;80;80;
0;0;0;0;93;85;85;88;89;89;83;85;85;86;87;87;82;80;80;
0;0;0;0;93;85;85;88;89;89;83;85;85;86;87;87;82;80;80;
0;0;0;0;93;85;85;88;89;89;83;85;85;86;87;87;82;80;80;
0;0;0;0;93;85;85;88;89;89;83;85;85;86;87;87;82;80;80;
0;0;0;0;94;85;85;88;89;89;83;85;85;86;87;87;82;80;80;
0;0;0;0;94;85;85;88;89;89;83;85;85;86;87;87;82;80;80;
0;0;0;0;94;85;85;88;89;89;83;85;85;86;87;87;82;80;80;
0;0;0;0;94;85;85;88;89;89;83;85;85;86;87;87;82;80;80;
0;0;0;0;94;85;85;88;89;89;83;85;85;86;86;86;82;80;80;
0;0;0;0;94;85;85;88;89;89;83;85;85;86;86;86;82;80;80;
0;0;0;0;94;85;85;88;89;89;83;85;85;86;86;86;82;80;80;
0;0;0;0;94;85;85;88;89;89;83;85;85;86;86;86;82;80;80;
0;0;0;0;94;85;85;88;89;89;83;85;85;86;86;86;82;80;80;
0;0;0;0;94;85;85;88;89;89;83;85;85;86;86;86;82;80;80;
0;0;0;0;94;85;85;88;89;89;83;85;85;86;86;86;82;80;80;
0;0;0;0;94;85;85;88;89;89;83;85;85;86;86;86;82;80;80;
0;0;0;0;94;85;85;88;89;89;83;85;85;86;86;86;82;80;80;
0;0;0;0;94;85;85;88;89;89;83;85;85;86;86;86;82;80;80;
0;0;0;0;94;85;85;87;89;89;83;85;85;86;86;86;82;80;80;
0;0;0;0;94;85;85;87;89;89;83;85;85;86;86;86;82;80;80;
0;0;0;0;94;85;85;87;89;89;83;85;85;86;86;86;82;80;80;
0;0;0;0;94;85;85;87;89;89;83;85;85;86;86;86;82;80;80;
0;0;0;0;94;85;85;87;89;89;83;85;85;86;86;86;82;80;80;
0;0;0;0;94;85;85;87;89;89;83;85;85;86;86;86;82;80;80;
0;0;0;0;94;85;85;87;89;89;83;85;85;86;86;86;82;80;80;
0;0;0;0;94;85;85;87;89;89;83;85;85;86;86;86;82;80;80;
0;0;0;0;94;85;85;87;89;89;83;85;85;86;86;86;82;80;80;
0;0;0;0;94;85;85;87;89;89;83;85;85;86;86;86;82;80;80;
0;0;0;0;94;85;85;87;89;89;83;85;85;86;86;86;82;80;80;
0;0;0;0;94;85;85;87;89;89;83;85;85;86;86;86;82;80;80;
0;0;0;0;94;85;85;87;89;89;83;85;85;86;86;86;82;80;80;
0;0;0;0;94;85;85;87;89;89;83;85;85;86;86;86;82;80;80;
0;0;0;0;94;85;85;87;89;89;83;85;85;86;86;86;82;80;80;
0;0;0;0;94;85;85;87;89;89;83;85;85;86;86;86;82;80;80;
0;0;0;0;94;85;85;87;89;89;83;85;85;86;86;86;82;80;80;
0;0;0;0;94;85;85;87;89;89;83;85;85;86;86;86;82;80;80;
0;0;0;0;94;85;85;87;89;89;83;85;85;86;86;86;82;80;80;
0;0;0;0;94;85;85;87;89;89;83;85;85;86;86;86;82;80;80;
0;0;0;0;94;85;85;87;89;89;83;85;85;86;86;86;82;80;80;
0;0;0;0;94;85;85;87;89;89;83;85;85;86;86;86;82;80;80;
0;0;0;0;94;85;85;87;89;89;83;85;85;86;86;86;82;80;80;
0;0;0;0;94;85;85;87;89;89;83;85;85;86;86;86;82;80;80;
0;0;0;0;94;85;85;87;89;89;83;85;85;86;86;86;82;80;80;
0;0;0;0;94;85;85;87;89;89;83;85;85;86;86;86;82;80;80;
0;0;0;0;95;85;85;87;89;89;83;85;85;86;86;86;82;80;80;
0;0;0;0;95;85;85;87;89;89;83;85;85;86;86;86;82;80;80;
0;0;0;0;95;85;85;87;89;89;83;85;85;86;86;86;82;80;80;
0;0;0;0;95;85;85;87;89;89;83;85;85;86;86;86;82;80;80;
0;0;0;0;95;85;85;87;89;89;83;85;85;86;86;86;82;80;80;
0;0;0;0;95;85;85;87;89;89;83;85;85;86;86;86;82;80;80;
0;0;0;0;95;85;85;87;89;89;83;85;85;86;86;86;82;80;80;
0;0;0;0;95;85;85;87;89;89;83;85;85;86;86;86;82;80;80;
0;0;0;0;95;85;85;87;89;89;83;85;85;86;86;86;82;80;80;
0;0;0;0;95;85;85;87;89;89;83;85;85;86;86;86;82;80;80;
0;0;0;0;95;85;85;87;89;89;83;85;85;86;86;86;82;80;80;
0;0;0;0;95;85;85;87;89;89;83;85;85;86;86;86;82;80;80;
0;0;0;0;95;85;85;87;89;89;83;85;85;86;86;86;82;80;80;
0;0;0;0;95;85;85;87;89;89;83;85;85;86;86;86;82;80;80;
0;0;0;0;95;85;85;87;89;89;83;85;85;86;86;86;82;80;80;
0;0;0;0;95;85;85;87;89;89;83;85;85;86;86;86;82;80;80;
0;0;0;0;95;85;85;87;89;89;83;85;85;86;86;86;82;80;80;
0;0;0;0;95;84;84;87;89;89;84;85;85;86;86;86;82;80;80;
0;0;0;0;95;84;84;87;89;89;84;85;85;86;86;86;81;80;80;
0;0;0;0;95;84;84;87;89;89;84;85;85;86;86;86;81;80;80;
0;0;0;0;95;84;84;87;89;89;84;85;85;86;87;87;81;80;80;
0;0;0;0;95;84;84;87;89;89;84;85;85;86;87;87;81;80;80;
0;0;0;0;95;84;84;87;89;89;84;85;85;86;87;87;81;80;80;
0;0;0;0;95;84;84;87;89;89;84;85;85;86;87;87;81;80;80;
0;0;0;0;95;84;84;87;89;89;84;85;85;86;87;87;81;80;80;
0;0;0;0;95;84;84;87;89;89;84;85;85;86;87;87;81;80;80;
0;0;0;0;95;84;84;87;89;89;84;85;85;86;87;87;81;80;80;
0;0;0;0;95;84;84;87;89;89;84;85;85;86;87;87;81;80;80;
0;0;0;0;95;84;84;87;89;89;84;85;85;86;87;87;81;80;80;
0;0;0;0;95;84;84;87;89;89;84;85;85;86;87;87;81;80;80;
0;0;0;0;95;84;84;87;89;89;84;85;85;86;87;87;81;80;80;
0;0;0;0;95;84;84;87;89;89;84;85;85;86;87;87;81;80;80;
0;0;0;0;95;84;84;87;89;89;84;85;85;86;87;87;81;80;80;
0;0;0;0;95;84;84;87;89;89;84;85;85;86;87;87;81;80;80;
0;0;0;0;95;84;84;87;89;89;84;85;85;86;87;87;81;80;80;
0;0;0;0;95;84;84;87;89;89;84;85;85;86;87;87;81;80;80;
0;0;0;0;95;84;84;87;89;89;84;85;85;86;87;87;81;80;80;
0;0;0;0;95;84;84;87;89;89;84;85;85;86;87;87;81;80;80;
0;0;0;0;95;84;84;87;89;89;84;85;85;86;87;87;81;80;80;
0;0;0;0;95;84;84;87;89;89;84;85;85;86;87;87;81;80;80;
0;0;0;0;95;84;84;87;89;89;84;85;85;86;87;87;81;80;80;
0;0;0;0;95;84;84;87;89;89;84;85;85;86;87;87;81;80;80;
0;0;0;0;95;84;84;87;89;89;84;85;85;86;87;87;81;80;80;
0;0;0;0;95;84;84;87;89;89;84;85;85;86;87;87;81;80;80;
0;0;0;0;95;84;84;87;89;89;84;85;85;86;87;87;81;80;80;
0;0;0;0;95;84;84;87;89;89;84;85;85;86;87;87;81;80;80;
0;0;0;0;95;84;84;87;89;89;84;85;85;86;87;87;81;80;80;
0;0;0;0;95;84;84;87;89;89;84;85;85;86;87;87;81;80;80;
0;0;0;0;95;84;84;87;89;89;84;85;85;86;87;87;81;80;80;
0;0;0;0;95;84;84;87;89;89;84;85;85;86;87;87;81;80;80;
0;0;0;0;95;84;84;87;89;89;84;85;85;86;86;86;81;80;80;
0;0;0;0;95;84;84;87;89;89;84;85;85;86;86;86;81;80;80;
0;0;0;0;95;84;84;87;89;89;84;85;85;86;86;86;81;80;80;
0;0;0;0;95;84;84;87;89;89;84;85;85;86;86;86;81;80;80;
0;0;0;0;95;84;84;87;89;89;84;85;85;86;86;86;81;80;80;
0;0;0;0;95;84;84;87;89;89;84;85;85;86;86;86;81;80;80;
0;0;0;0;95;84;84;87;89;89;84;85;85;86;86;86;81;80;80;
0;0;0;0;95;84;84;87;89;89;84;85;85;86;86;86;81;80;80;
0;0;0;0;95;84;84;87;89;89;84;85;85;86;86;86;81;80;80;
0;0;0;0;95;84;84;87;89;89;84;85;85;86;86;86;81;80;80;
0;0;0;0;95;84;84;87;89;89;84;85;85;86;86;86;81;80;80;
0;0;0;0;95;84;84;87;89;89;84;85;85;86;86;86;81;80;80;
0;0;0;0;95;84;84;87;89;89;84;85;85;86;86;86;81;80;80;
0;0;0;0;95;84;84;87;89;89;84;85;85;86;86;86;81;80;80;
0;0;0;0;95;84;84;87;89;89;84;85;85;86;86;86;81;80;80;
0;0;0;0;95;84;84;87;89;89;84;85;85;86;86;86;81;80;80;
0;0;0;0;95;84;84;87;89;89;84;85;85;86;86;86;81;80;80;
0;0;0;0;95;84;84;87;89;89;84;85;85;86;86;86;81;80;80;
0;0;0;0;95;84;84;87;89;89;84;85;85;86;86;86;81;80;80;
0;0;0;0;95;84;84;87;89;89;84;85;85;86;86;86;81;80;80;
0;0;0;0;95;84;84;87;89;89;84;85;85;86;86;86;81;80;80;
0;0;0;0;95;84;84;87;89;89;84;85;85;86;86;86;81;80;80;
0;0;0;0;95;84;84;87;89;89;84;85;85;86;86;86;81;80;80;
0;0;0;0;95;84;84;87;89;89;84;85;85;86;86;86;81;80;80;
0;0;0;0;95;84;84;87;89;89;84;85;85;86;86;86;81;80;80;
0;0;0;0;95;84;84;87;89;89;84;85;85;86;86;86;81;80;80;
0;0;0;0;95;84;84;87;89;89;84;85;85;86;86;86;81;80;80;
0;0;0;0;95;84;84;87;89;89;84;85;85;86;86;86;81;80;80;
0;0;0;0;95;84;84;87;89;89;84;85;85;86;86;86;81;80;80;
0;0;0;0;95;84;84;87;89;89;84;85;85;86;86;86;81;80;80;
0;0;0;0;95;84;84;87;89;89;84;85;85;86;86;86;81;80;80;
0;0;0;0;95;84;84;87;89;89;84;85;85;86;86;86;81;80;80;
0;0;0;0;95;84;84;87;89;89;84;85;85;86;86;86;81;80;80;
0;0;0;0;95;84;84;87;89;89;84;85;85;86;86;86;81;80;80;
0;0;0;0;95;84;84;87;89;89;84;85;85;86;86;86;81;80;80;
0;0;0;0;94;83;83;87;89;89;84;85;85;86;86;86;81;80;80;
0;0;0;0;94;83;83;87;89;89;84;85;85;86;86;86;81;80;80;
0;0;0;0;94;83;83;87;89;89;84;85;85;86;86;86;81;80;80;
0;0;0;0;94;83;83;87;89;89;84;85;85;86;86;86;81;80;80;
0;0;0;0;94;83;83;87;89;89;84;85;85;86;86;86;81;80;80;
0;0;0;0;94;83;83;87;89;89;84;85;85;86;86;86;81;80;80;
0;0;0;0;95;83;83;87;89;89;84;85;85;86;86;86;81;80;80;
0;0;0;0;95;83;83;87;89;89;84;85;85;86;86;86;81;80;80;
0;0;0;0;95;83;83;87;89;89;84;85;85;86;86;86;81;80;80;
0;0;0;0;95;83;83;87;89;89;84;85;85;86;86;86;81;80;80;
0;0;0;0;95;83;83;87;89;89;84;85;85;86;86;86;81;80;80;
0;0;0;0;95;83;83;88;89;89;84;85;85;86;86;86;81;80;80;
0;0;0;0;95;83;83;88;89;89;84;85;85;86;86;86;81;80;80;
0;0;0;0;95;83;83;88;89;89;84;85;85;86;86;86;81;80;80;
0;0;0;0;95;83;83;88;89;89;84;85;85;86;86;86;81;80;80;
0;0;0;0;95;83;83;88;89;89;84;85;85;86;86;86;81;80;80;
0;0;0;0;95;83;83;88;89;89;84;85;85;86;86;86;81;80;80;
0;0;0;0;95;83;83;88;89;89;84;85;85;86;86;86;81;80;80;
0;0;0;0;95;83;83;88;89;89;84;85;85;86;86;86;81;80;80;
0;0;0;0;95;83;83;88;89;89;84;85;85;86;86;86;81;80;80;
0;0;0;0;95;83;83;88;89;89;84;85;85;86;86;86;81;80;80;
0;0;0;0;95;83;83;88;89;89;84;85;85;86;86;86;81;80;80;
0;0;0;0;95;83;83;88;89;89;84;85;85;86;86;86;81;80;80;
0;0;0;0;95;83;83;88;89;89;84;85;85;86;86;86;81;80;80;
0;0;0;0;95;83;83;88;89;89;84;85;85;86;86;86;81;80;80;
0;0;0;0;95;83;83;88;89;89;84;85;85;86;86;86;81;80;80;
0;0;0;0;95;83;83;88;89;89;84;85;85;86;86;86;81;80;80;
0;0;0;0;95;83;83;88;89;89;84;85;85;86;86;86;81;80;80;
0;0;0;0;95;83;83;88;89;89;84;85;85;86;86;86;81;80;80;
0;0;0;0;95;83;83;88;89;89;84;85;85;86;86;86;81;80;80;
0;0;0;0;95;83;83;88;89;89;84;85;85;86;86;86;81;80;80;
0;0;0;0;95;83;83;88;89;89;84;85;85;86;86;86;81;80;80;
0;0;0;0;95;83;83;88;89;89;84;85;85;86;86;86;81;80;80;
0;0;0;0;95;83;83;88;89;89;84;85;85;86;86;86;81;80;80;
0;0;0;0;95;83;83;88;89;89;84;85;85;86;86;86;81;80;80;
0;0;0;0;95;83;83;88;89;89;84;85;85;86;86;86;81;80;80;
0;0;0;0;95;83;83;88;89;89;84;85;85;86;86;86;81;80;80;
0;0;0;0;95;83;83;88;89;89;84;85;85;86;86;86;81;79;79;
0;0;0;0;95;83;83;88;89;89;84;85;85;86;86;86;81;79;79;
0;0;0;0;95;83;83;88;89;89;84;85;85;86;86;86;81;79;79;
0;0;0;0;95;83;83;88;89;89;84;85;85;86;86;86;81;79;79;
0;0;0;0;95;83;83;88;89;89;84;85;85;86;86;86;81;79;79;
0;0;0;0;95;83;83;88;89;89;85;85;85;87;87;87;81;80;80;
0;0;0;0;95;83;83;88;89;89;85;85;85;87;87;87;81;80;80;
0;0;0;0;95;83;83;88;89;89;85;85;85;87;87;87;81;80;80;
0;0;0;0;95;83;83;88;89;89;85;85;85;87;87;87;81;80;80;
0;0;0;0;95;83;83;88;89;89;85;85;85;87;87;87;81;80;80;
0;0;0;0;95;83;83;88;89;89;85;85;85;87;87;87;81;80;80;
0;0;0;0;95;83;83;88;89;89;85;85;85;87;87;87;81;80;80;
0;0;0;0;95;83;83;88;89;89;85;85;85;87;87;87;81;80;80;
0;0;0;0;95;83;83;88;89;89;85;85;85;87;87;87;81;80;80;
0;0;0;0;95;83;83;88;89;89;85;85;85;87;87;87;81;80;80;
0;0;0;0;95;82;82;88;89;89;85;85;85;87;87;87;81;80;80;
0;0;0;0;95;82;82;88;89;89;85;85;85;87;87;87;81;80;80;
0;0;0;0;95;82;82;88;89;89;85;85;85;87;87;87;81;80;80;
0;0;0;0;95;82;82;88;89;89;85;85;85;87;87;87;81;80;80;
0;0;0;0;95;82;82;88;89;89;85;85;85;87;87;87;81;80;80;
0;0;0;0;95;82;82;88;89;89;85;85;85;87;87;87;81;80;80;
0;0;0;0;95;82;82;88;89;89;85;85;85;87;87;87;81;80;80;
0;0;0;0;95;82;82;88;89;89;85;85;85;87;87;87;81;80;80;
0;0;0;0;95;82;82;88;89;89;85;85;85;87;87;87;81;80;80;
0;0;0;0;95;82;82;88;89;89;85;85;85;87;87;87;81;80;80;
0;0;0;0;95;82;82;88;89;89;85;85;85;87;87;87;81;80;80;
0;0;0;0;95;82;82;88;89;89;85;85;85;87;87;87;81;80;80;
0;0;0;0;95;82;82;88;89;89;85;85;85;87;87;87;81;80;80;
0;0;0;0;95;82;82;88;89;89;85;85;85;87;87;87;81;80;80;
0;0;0;0;95;82;82;88;89;89;85;85;85;87;87;87;81;80;80;
0;0;0;0;95;82;82;88;89;89;85;85;85;87;87;87;81;80;80;
0;0;0;0;95;82;82;88;89;89;85;85;85;87;87;87;81;80;80;
0;0;0;0;95;82;82;88;89;89;85;85;85;87;87;87;81;80;80;
0;0;0;0;95;82;82;88;89;89;85;85;85;87;87;87;81;80;80;
0;0;0;0;95;82;82;88;89;89;85;85;85;87;87;87;81;80;80;
0;0;0;0;95;82;82;88;89;89;85;85;85;87;87;87;81;80;80;
0;0;0;0;95;82;82;88;89;89;85;85;85;87;87;87;81;80;80;
0;0;0;0;95;82;82;88;89;89;85;85;85;87;87;87;81;80;80;
0;0;0;0;95;82;82;88;89;89;85;85;85;87;87;87;81;80;80;
0;0;0;0;95;82;82;88;89;89;85;85;85;87;87;87;81;80;80;
0;0;0;0;95;82;82;88;89;89;85;85;85;87;87;87;81;80;80;
0;0;0;0;95;82;82;88;89;89;85;85;85;87;87;87;81;80;80;
0;0;0;0;95;82;82;88;89;89;85;85;85;87;87;87;81;80;80;
0;0;0;0;95;82;82;88;89;89;85;85;85;87;87;87;81;80;80;
0;0;0;0;95;82;82;88;89;89;85;85;85;87;87;87;81;80;80;
0;0;0;0;95;82;82;88;89;89;85;85;85;87;87;87;81;80;80;
0;0;0;0;95;82;82;88;89;89;85;85;85;87;87;87;81;80;80;
0;0;0;0;95;82;82;88;89;89;85;85;85;87;87;87;81;80;80;
0;0;0;0;95;82;82;88;89;89;85;85;85;87;87;87;81;80;80;
0;0;0;0;95;82;82;88;89;89;85;85;85;87;87;87;81;80;80;
0;0;0;0;95;82;82;88;89;89;85;85;85;87;87;87;81;80;80;
0;0;0;0;95;82;82;88;89;89;85;85;85;87;87;87;81;80;80;
0;0;0;0;95;82;82;88;89;89;85;85;85;87;87;87;81;80;80;
0;0;0;0;95;82;82;88;89;89;85;85;85;87;87;87;81;80;80;
0;0;0;0;95;82;82;88;89;89;85;85;85;87;87;87;81;80;80;
0;0;0;0;95;82;82;88;89;89;85;85;85;87;87;87;81;80;80;
0;0;0;0;95;82;82;88;89;89;85;85;85;87;87;87;81;80;80;
0;0;0;0;94;81;81;88;89;89;85;85;85;87;87;87;81;81;81;
0;0;0;0;94;81;81;88;89;89;85;85;85;87;87;87;81;81;81;
0;0;0;0;94;81;81;88;89;89;85;85;85;87;87;87;81;81;81;
0;0;0;0;94;81;81;88;89;89;85;85;85;87;87;87;81;81;81;
0;0;0;0;94;81;81;88;89;89;85;85;85;87;87;87;81;81;81;
0;0;0;0;94;81;81;88;89;89;85;85;85;87;87;87;81;81;81;
0;0;0;0;94;81;81;88;89;89;85;85;85;87;87;87;81;81;81;
0;0;0;0;94;81;81;88;89;89;85;85;85;87;87;87;81;81;81;
0;0;0;0;94;81;81;88;89;89;85;85;85;87;87;87;81;81;81;
0;0;0;0;94;81;81;88;89;89;85;85;85;87;87;87;81;81;81;
0;0;0;0;94;81;81;88;89;89;85;85;85;87;87;87;81;81;81;
0;0;0;0;94;81;81;88;89;89;85;85;85;87;87;87;81;81;81;
0;0;0;0;94;81;81;88;89;89;85;85;85;87;87;87;81;81;81;
0;0;0;0;94;81;81;88;89;89;85;85;85;87;87;87;81;81;81;
0;0;0;0;94;81;81;88;89;89;85;85;85;87;87;87;81;81;81;
0;0;0;0;94;81;81;88;89;89;85;85;85;87;87;87;81;81;81;
0;0;0;0;94;81;81;88;89;89;85;85;85;87;87;87;81;81;81;
0;0;0;0;94;81;81;88;89;89;85;85;85;87;87;87;81;81;81;
0;0;0;0;94;81;81;88;89;89;85;85;85;87;87;87;81;81;81;
0;0;0;0;94;81;81;88;89;89;85;85;85;87;87;87;81;81;81;
0;0;0;0;94;81;81;88;89;89;85;85;85;87;87;87;81;81;81;
0;0;0;0;94;81;81;88;89;89;85;85;85;87;87;87;81;81;81;
0;0;0;0;94;81;81;88;89;89;85;85;85;87;87;87;81;81;81;
0;0;0;0;94;81;81;88;89;89;85;85;85;87;87;87;81;81;81;
0;0;0;0;94;81;81;88;89;89;85;85;85;87;87;87;81;81;81;
0;0;0;0;94;81;81;88;89;89;85;85;85;87;87;87;81;81;81;
0;0;0;0;94;81;81;88;89;89;85;85;85;87;87;87;82;81;81;
0;0;0;0;94;81;81;88;89;89;85;85;85;87;87;87;82;81;81;
0;0;0;0;94;81;81;88;89;89;85;85;85;87;87;87;82;81;81;
0;0;0;0;94;81;81;88;89;89;85;85;85;87;87;87;82;81;81;
0;0;0;0;94;81;81;88;89;89;85;85;85;87;87;87;82;81;81;
0;0;0;0;94;81;81;88;89;89;85;85;85;87;87;87;82;81;81;
0;0;0;0;94;81;81;88;89;89;85;85;85;87;87;87;82;81;81;
0;0;0;0;94;81;81;88;88;88;84;85;85;86;86;86;81;81;81;
0;0;0;0;95;81;81;88;88;88;84;85;85;86;86;86;81;81;81;
0;0;0;0;95;81;81;88;88;88;84;85;85;86;86;86;81;81;81;
0;0;0;0;95;81;81;88;88;88;84;85;85;86;86;86;81;81;81;
0;0;0;0;95;81;81;88;88;88;84;85;85;86;86;86;81;81;81;
0;0;0;0;95;81;81;88;88;88;84;85;85;86;86;86;81;81;81;
0;0;0;0;95;81;81;88;88;88;84;85;85;86;86;86;81;81;81;
0;0;0;0;95;81;81;88;88;88;84;85;85;86;86;86;81;81;81;
0;0;0;0;95;81;81;88;88;88;84;85;85;86;86;86;81;81;81;
0;0;0;0;95;82;82;88;88;88;84;85;85;86;86;86;81;81;81;
0;0;0;0;95;82;82;88;88;88;84;85;85;86;86;86;81;81;81;
0;0;0;0;95;82;82;88;88;88;84;85;85;86;86;86;81;81;81;
0;0;0;0;95;82;82;88;88;88;84;85;85;86;86;86;81;81;81;
0;0;0;0;95;82;82;88;88;88;84;85;85;86;86;86;81;81;81;
0;0;0;0;95;82;82;88;88;88;84;85;85;86;86;86;81;81;81;
0;0;0;0;95;82;82;88;88;88;84;85;85;86;86;86;81;81;81;
0;0;0;0;95;82;82;88;88;88;84;85;85;86;86;86;81;81;81;
0;0;0;0;95;82;82;88;88;88;84;85;85;86;86;86;81;81;81;
0;0;0;0;95;82;82;88;88;88;85;85;85;86;86;86;82;81;81;
0;0;0;0;95;82;82;88;88;88;85;85;85;86;86;86;82;81;81;
0;0;0;0;95;82;82;88;88;88;85;85;85;86;86;86;82;81;81;
0;0;0;0;95;82;82;88;88;88;85;85;85;86;86;86;82;81;81;
0;0;0;0;95;82;82;88;88;88;85;85;85;86;86;86;82;81;81;
0;0;0;0;95;82;82;88;88;88;85;85;85;86;86;86;82;81;81;
0;0;0;0;95;82;82;88;88;88;85;85;85;86;86;86;82;81;81;
0;0;0;0;95;82;82;88;88;88;85;85;85;86;86;86;82;81;81;
0;0;0;0;95;82;82;88;88;88;85;85;85;86;86;86;82;81;81;
0;0;0;0;95;82;82;88;88;88;85;85;85;86;86;86;82;81;81;
0;0;0;0;95;82;82;88;88;88;85;85;85;86;86;86;82;81;81;
0;0;0;0;95;82;82;88;88;88;85;85;85;86;86;86;82;81;81;
0;0;0;0;95;82;82;88;88;88;85;85;85;86;86;86;82;81;81;
0;0;0;0;95;82;82;88;88;88;85;85;85;86;86;86;82;81;81;
0;0;0;0;95;82;82;88;88;88;85;85;85;86;86;86;82;81;81;
0;0;0;0;95;82;82;88;88;88;85;85;85;86;86;86;82;81;81;
0;0;0;0;95;82;82;88;88;88;85;85;85;86;86;86;82;81;81;
0;0;0;0;95;82;82;88;88;88;85;85;85;86;86;86;82;81;81;
0;0;0;0;95;82;82;88;88;88;85;85;85;86;86;86;82;81;81;
0;0;0;0;95;82;82;88;88;88;85;85;85;86;86;86;82;81;81;
0;0;0;0;95;82;82;88;88;88;85;85;85;86;86;86;82;81;81;
0;0;0;0;95;82;82;88;88;88;85;85;85;86;86;86;82;81;81;
0;0;0;0;95;82;82;88;88;88;85;85;85;86;86;86;82;81;81;
0;0;0;0;95;82;82;88;88;88;85;85;85;86;86;86;82;81;81;
0;0;0;0;95;82;82;88;88;88;85;85;85;86;86;86;82;81;81;
0;0;0;0;95;82;82;88;88;88;85;85;85;86;86;86;82;81;81;
0;0;0;0;95;82;82;88;88;88;85;85;85;86;86;86;82;81;81;
0;0;0;0;95;82;82;88;88;88;85;85;85;86;86;86;82;81;81;
0;0;0;0;95;82;82;88;88;88;85;85;85;86;86;86;82;81;81;
0;0;0;0;95;82;82;88;88;88;85;85;85;86;86;86;82;81;81;
0;0;0;0;95;82;82;88;88;88;85;85;85;86;86;86;82;81;81;
0;0;0;0;95;82;82;88;88;88;85;85;85;86;86;86;82;81;81;
0;0;0;0;95;82;82;88;88;88;85;85;85;86;86;86;82;81;81;
0;0;0;0;95;82;82;88;88;88;85;85;85;86;86;86;82;81;81;
0;0;0;0;95;82;82;88;88;88;85;85;85;86;86;86;82;81;81;
0;0;0;0;95;82;82;88;88;88;85;85;85;86;86;86;82;81;81;
0;0;0;0;95;82;82;88;88;88;85;85;85;86;86;86;82;81;81;
0;0;0;0;95;82;82;88;88;88;85;85;85;86;86;86;82;81;81;
0;0;0;0;95;82;82;88;88;88;85;85;85;86;86;86;82;81;81;
0;0;0;0;95;82;82;88;88;88;85;85;85;86;86;86;82;81;81;
0;0;0;0;95;82;82;88;88;88;85;85;85;86;86;86;82;81;81;
0;0;0;0;95;82;82;88;88;88;85;85;85;86;86;86;82;81;81;
0;0;0;0;95;82;82;88;88;88;85;85;85;86;86;86;82;81;81;
0;0;0;0;95;82;82;88;88;88;85;85;85;86;86;86;82;81;81;
0;0;0;0;95;82;82;88;88;88;85;85;85;86;86;86;82;81;81;
0;0;0;0;95;82;82;88;88;88;85;85;85;86;86;86;82;81;81;
0;0;0;0;95;82;82;88;88;88;85;85;85;86;86;86;82;81;81;
0;0;0;0;95;82;82;88;88;88;85;85;85;86;86;86;82;81;81;
0;0;0;0;95;82;82;88;88;88;85;85;85;86;86;86;82;81;81;
0;0;0;0;95;82;82;88;88;88;85;85;85;86;86;86;82;81;81;
0;0;0;0;95;82;82;88;88;88;85;85;85;86;86;86;82;81;81;
0;0;0;0;95;82;82;88;88;88;85;85;85;86;86;86;82;81;81;
0;0;0;0;95;82;82;88;88;88;85;85;85;86;86;86;82;81;81;
0;0;0;0;95;82;82;88;88;88;85;85;85;86;86;86;82;81;81;
0;0;0;0;95;82;82;88;88;88;85;85;85;86;86;86;82;81;81;
0;0;0;0;95;82;82;88;88;88;85;85;85;86;86;86;82;81;81;
0;0;0;0;95;82;82;88;88;88;85;85;85;86;86;86;82;81;81;
0;0;0;0;95;82;82;88;88;88;85;85;85;86;86;86;82;81;81;
0;0;0;0;95;82;82;88;88;88;85;85;85;86;86;86;82;81;81;
0;0;0;0;95;82;82;88;88;88;85;85;85;86;86;86;82;81;81;
0;0;0;0;95;82;82;88;88;88;85;85;85;86;86;86;82;81;81;
0;0;0;0;95;82;82;88;88;88;85;85;85;86;86;86;82;81;81;
0;0;0;0;95;82;82;88;88;88;85;85;85;86;86;86;82;81;81;
0;0;0;0;95;82;82;88;88;88;85;85;85;86;86;86;82;81;81;
0;0;0;0;95;82;82;88;88;88;85;85;85;86;86;86;82;81;81;
0;0;0;0;95;82;82;88;88;88;85;85;85;86;86;86;82;81;81;
0;0;0;0;95;82;82;88;88;88;85;85;85;86;86;86;82;81;81;
0;0;0;0;95;82;82;88;88;88;85;85;85;86;86;86;82;81;81;
0;0;0;0;95;82;82;88;88;88;85;85;85;86;86;86;82;81;81;
0;0;0;0;95;82;82;88;88;88;85;85;85;86;86;86;82;81;81;
0;0;0;0;95;82;82;88;88;88;85;85;85;86;86;86;82;81;81;
0;0;0;0;95;82;82;88;88;88;85;85;85;86;86;86;82;81;81;
0;0;0;0;95;82;82;88;88;88;85;85;85;86;86;86;82;81;81;
0;0;0;0;95;82;82;88;88;88;85;85;85;86;86;86;82;81;81;
0;0;0;0;95;82;82;88;88;88;85;85;85;86;86;86;82;81;81;
0;0;0;0;95;82;82;88;88;88;85;85;85;86;86;86;82;81;81;
0;0;0;0;95;82;82;88;88;88;85;85;85;86;86;86;82;81;81;
0;0;0;0;95;82;82;88;88;88;85;85;85;86;86;86;82;81;81;
0;0;0;0;95;82;82;88;88;88;85;85;85;86;86;86;82;81;81;
0;0;0;0;95;82;82;88;88;88;85;85;85;86;86;86;82;81;81;
0;0;0;0;95;82;82;88;88;88;85;85;85;86;86;86;82;81;81;
0;0;0;0;95;82;82;88;88;88;85;85;85;86;86;86;82;81;81;
0;0;0;0;95;82;82;88;88;88;85;85;85;86;86;86;82;81;81;
0;0;0;0;95;82;82;88;88;88;85;85;85;86;86;86;82;81;81;
0;0;0;0;95;82;82;88;88;88;85;85;85;86;86;86;82;81;81;
0;0;0;0;95;82;82;88;88;88;85;85;85;86;86;86;82;81;81;
0;0;0;0;95;82;82;88;88;88;85;85;85;86;86;86;82;81;81;
0;0;0;0;95;82;82;88;88;88;85;85;85;86;86;86;82;81;81;
0;0;0;0;95;82;82;88;88;88;85;85;85;86;86;86;82;81;81;
0;0;0;0;95;82;82;88;88;88;85;85;85;86;86;86;82;81;81;
0;0;0;0;95;82;82;88;88;88;85;85;85;86;86;86;82;81;81;
0;0;0;0;95;82;82;88;88;88;85;85;85;86;86;86;82;81;81;
0;0;0;0;95;82;82;88;88;88;85;85;85;86;86;86;82;81;81;
0;0;0;0;95;82;82;88;88;88;85;85;85;86;86;86;82;81;81;
0;0;0;0;95;82;82;88;88;88;85;85;85;86;86;86;82;81;81;
0;0;0;0;95;82;82;88;88;88;85;85;85;86;86;86;82;81;81;
0;0;0;0;95;82;82;88;88;88;85;85;85;86;86;86;82;81;81;
0;0;0;0;95;82;82;88;88;88;85;85;85;86;86;86;82;81;81;
0;0;0;0;95;82;82;88;88;88;85;85;85;86;86;86;82;81;81;
0;0;0;0;95;82;82;88;88;88;85;85;85;86;86;86;82;81;81;
0;0;0;0;95;82;82;88;88;88;85;85;85;86;86;86;82;81;81;
0;0;0;0;95;82;82;88;88;88;85;85;85;86;86;86;82;81;81;
0;0;0;0;95;82;82;88;88;88;85;85;85;86;86;86;82;81;81;
0;0;0;0;95;82;82;88;88;88;85;85;85;86;86;86;82;81;81;
0;0;0;0;95;82;82;88;88;88;85;85;85;86;86;86;82;81;81;
0;0;0;0;95;82;82;88;88;88;85;85;85;86;86;86;82;81;81;
0;0;0;0;95;82;82;88;88;88;85;85;85;86;86;86;82;81;81;
0;0;0;0;95;82;82;88;88;88;85;85;85;86;86;86;82;81;81;
0;0;0;0;95;82;82;88;88;88;85;85;85;86;86;86;82;81;81;
0;0;0;0;95;82;82;88;88;88;85;85;85;86;86;86;82;81;81;
0;0;0;0;95;82;82;88;88;88;85;85;85;86;86;86;82;81;81;
0;0;0;0;95;82;82;88;88;88;85;85;85;86;86;86;82;81;81;
0;0;0;0;95;82;82;88;88;88;85;85;85;86;86;86;82;81;81;
0;0;0;0;95;82;82;88;88;88;85;85;85;86;86;86;82;81;81;
0;0;0;0;95;82;82;88;88;88;85;85;85;86;86;86;82;81;81;
0;0;0;0;94;81;81;88;89;89;85;85;85;86;86;86;82;81;81;
0;0;0;0;94;81;81;88;89;89;85;85;85;86;86;86;82;81;81;
0;0;0;0;94;81;81;88;89;89;85;85;85;86;86;86;82;81;81;
0;0;0;0;94;81;81;88;89;89;85;85;85;86;86;86;82;81;81;
0;0;0;0;94;81;81;88;89;89;85;85;85;86;86;86;82;81;81;
0;0;0;0;94;81;81;88;89;89;85;85;85;86;86;86;82;81;81;
0;0;0;0;94;81;81;88;89;89;85;85;85;86;86;86;82;81;81;
0;0;0;0;94;81;81;88;89;89;85;85;85;86;86;86;82;81;81;
0;0;0;0;94;81;81;88;89;89;85;85;85;86;86;86;82;81;81;
0;0;0;0;94;81;81;88;89;89;85;85;85;86;86;86;82;81;81;
0;0;0;0;94;81;81;88;89;89;85;85;85;86;86;86;82;81;81;
0;0;0;0;94;81;81;88;89;89;85;85;85;86;86;86;82;81;81;
0;0;0;0;94;81;81;88;89;89;85;85;85;86;86;86;82;81;81;
0;0;0;0;94;81;81;88;89;89;85;85;85;86;86;86;82;81;81;
0;0;0;0;94;81;81;88;89;89;85;85;85;86;86;86;82;81;81;
0;0;0;0;94;81;81;88;89;89;85;85;85;86;86;86;82;81;81;
0;0;0;0;94;81;81;88;89;89;85;85;85;86;86;86;82;81;81;
0;0;0;0;94;82;82;88;89;89;85;85;85;86;86;86;82;81;81;
0;0;0;0;94;82;82;88;89;89;85;85;85;86;86;86;82;81;81;
0;0;0;0;94;82;82;88;89;89;85;85;85;86;86;86;82;81;81;
0;0;0;0;94;82;82;88;89;89;85;85;85;86;86;86;82;81;81;
0;0;0;0;94;82;82;88;89;89;85;85;85;86;86;86;82;81;81;
0;0;0;0;94;82;82;88;89;89;85;85;85;86;86;86;82;81;81;
0;0;0;0;94;82;82;88;89;89;85;85;85;86;86;86;82;81;81;
0;0;0;0;94;82;82;88;89;89;85;85;85;86;86;86;82;81;81;
0;0;0;0;94;82;82;88;89;89;85;85;85;86;86;86;82;81;81;
0;0;0;0;94;82;82;88;89;89;85;85;85;86;86;86;82;81;81;
0;0;0;0;94;82;82;88;89;89;85;85;85;86;86;86;82;81;81;
0;0;0;0;94;82;82;88;89;89;85;85;85;86;86;86;82;81;81;
0;0;0;0;94;82;82;88;89;89;85;85;85;86;86;86;82;81;81;
0;0;0;0;94;82;82;88;89;89;85;85;85;86;86;86;82;81;81;
0;0;0;0;94;82;82;88;89;89;85;85;85;86;86;86;82;81;81;
0;0;0;0;94;82;82;88;89;89;85;85;85;86;86;86;82;81;81;
0;0;0;0;94;82;82;88;89;89;85;85;85;86;86;86;82;81;81;
0;0;0;0;94;82;82;88;89;89;85;85;85;86;86;86;82;81;81;
0;0;0;0;94;82;82;88;89;89;85;85;85;86;86;86;82;81;81;
0;0;0;0;94;82;82;88;89;89;85;85;85;86;86;86;82;81;81;
0;0;0;0;94;82;82;88;89;89;85;85;85;86;86;86;82;81;81;
0;0;0;0;94;82;82;88;89;89;85;85;85;86;86;86;82;81;81;
0;0;0;0;94;82;82;88;89;89;85;85;85;86;86;86;82;81;81;
0;0;0;0;94;82;82;88;89;89;85;85;85;86;86;86;82;81;81;
0;0;0;0;94;82;82;88;89;89;85;85;85;86;86;86;82;81;81;
0;0;0;0;94;81;81;88;89;89;85;85;85;86;86;86;82;81;81;
0;0;0;0;94;81;81;88;89;89;85;85;85;86;86;86;82;81;81;
0;0;0;0;94;81;81;88;89;89;85;85;85;86;86;86;82;81;81;
0;0;0;0;94;81;81;88;89;89;85;85;85;86;86;86;82;81;81;
0;0;0;0;94;81;81;88;89;89;85;85;85;86;86;86;82;81;81;
0;0;0;0;94;81;81;88;89;89;85;85;85;86;86;86;82;81;81;
0;0;0;0;94;81;81;88;89;89;85;85;85;86;86;86;82;81;81;
0;0;0;0;94;81;81;88;89;89;85;85;85;86;86;86;82;81;81;
0;0;0;0;94;81;81;88;89;89;85;85;85;86;86;86;82;81;81;
0;0;0;0;94;81;81;88;89;89;85;85;85;86;86;86;82;81;81;
0;0;0;0;94;81;81;88;89;89;85;85;85;86;86;86;82;81;81;
0;0;0;0;94;81;81;88;89;89;85;85;85;86;86;86;82;81;81;
0;0;0;0;94;81;81;88;89;89;85;85;85;86;86;86;82;81;81;
0;0;0;0;94;81;81;88;89;89;85;85;85;86;86;86;82;81;81;
0;0;0;0;94;81;81;88;89;89;85;85;85;86;86;86;82;81;81;
0;0;0;0;94;81;81;88;89;89;85;85;85;86;86;86;82;81;81;
0;0;0;0;93;81;81;88;88;88;85;85;85;86;86;86;81;81;81;
0;0;0;0;93;81;81;88;88;88;85;85;85;86;86;86;81;81;81;
0;0;0;0;93;81;81;88;88;88;85;85;85;86;86;86;81;81;81;
0;0;0;0;93;81;81;88;88;88;85;85;85;86;86;86;81;81;81;
0;0;0;0;93;81;81;88;88;88;85;85;85;86;86;86;81;81;81;
0;0;0;0;93;81;81;88;88;88;85;85;85;86;86;86;81;81;81;
0;0;0;0;93;81;81;88;88;88;85;85;85;86;86;86;81;81;81;
0;0;0;0;93;81;81;88;88;88;85;85;85;86;86;86;81;81;81;
0;0;0;0;93;81;81;88;88;88;85;85;85;86;86;86;81;81;81;
0;0;0;0;93;81;81;88;88;88;85;85;85;86;86;86;81;81;81;
0;0;0;0;93;80;80;88;88;88;85;85;85;86;86;86;81;81;81;
0;0;0;0;92;80;80;88;88;88;85;85;85;86;86;86;81;81;81;
0;0;0;0;92;80;80;88;88;88;85;85;85;86;86;86;81;81;81;
0;0;0;0;92;80;80;88;88;88;85;85;85;86;86;86;81;81;81;
0;0;0;0;92;80;80;88;88;88;85;85;85;86;86;86;81;81;81;
0;0;0;0;92;80;80;88;88;88;85;85;85;86;86;86;81;81;81;
0;0;0;0;92;80;80;88;88;88;85;85;85;86;86;86;81;81;81;
0;0;0;0;92;80;80;88;88;88;85;85;85;86;86;86;81;81;81;
0;0;0;0;92;80;80;88;88;88;85;85;85;86;86;86;81;81;81;
0;0;0;0;92;80;80;88;88;88;85;85;85;86;86;86;81;81;81;
0;0;0;0;92;80;80;88;88;88;85;85;85;86;86;86;81;81;81;
0;0;0;0;92;80;80;88;88;88;85;85;85;86;86;86;81;81;81;
0;0;0;0;92;80;80;88;88;88;85;85;85;86;86;86;81;81;81;
0;0;0;0;92;80;80;88;88;88;85;85;85;86;86;86;81;81;81;
0;0;0;0;92;80;80;88;88;88;85;85;85;86;86;86;81;81;81;
0;0;0;0;92;80;80;88;88;88;85;85;85;86;86;86;81;81;81;
0;0;0;0;92;80;80;88;88;88;85;85;85;86;86;86;81;81;81;
0;0;0;0;92;80;80;88;88;88;85;85;85;86;86;86;81;81;81;
0;0;0;0;92;80;80;88;88;88;85;85;85;86;86;86;81;81;81;
0;0;0;0;92;80;80;88;88;88;85;85;85;86;86;86;81;81;81;
0;0;0;0;92;80;80;88;88;88;85;85;85;86;86;86;81;81;81;
0;0;0;0;92;80;80;88;88;88;85;85;85;86;86;86;81;81;81;
0;0;0;0;92;80;80;88;88;88;85;85;85;86;86;86;81;81;81;
0;0;0;0;92;80;80;88;88;88;85;85;85;86;86;86;81;81;81;
0;0;0;0;92;80;80;88;88;88;85;85;85;86;86;86;81;81;81;
0;0;0;0;91;80;80;88;88;88;84;85;85;86;86;86;81;81;81;
0;0;0;0;91;80;80;88;88;88;84;85;85;86;86;86;81;81;81;
0;0;0;0;91;80;80;88;88;88;84;85;85;86;86;86;81;81;81;
0;0;0;0;91;80;80;88;88;88;84;85;85;86;86;86;81;81;81;
0;0;0;0;91;80;80;88;88;88;84;85;85;86;86;86;81;81;81;
0;0;0;0;91;80;80;88;88;88;84;85;85;86;86;86;81;81;81;
0;0;0;0;91;80;80;88;88;88;84;85;85;86;86;86;81;81;81;
0;0;0;0;91;80;80;88;88;88;84;85;85;86;86;86;81;81;81;
0;0;0;0;91;80;80;88;88;88;84;85;85;86;86;86;81;81;81;
0;0;0;0;91;80;80;88;88;88;84;85;85;86;86;86;81;81;81;
0;0;0;0;91;80;80;88;88;88;84;85;85;86;86;86;81;81;81;
0;0;0;0;91;80;80;88;88;88;84;85;85;86;86;86;81;81;81;
0;0;0;0;91;80;80;88;88;88;84;85;85;86;86;86;81;81;81;
0;0;0;0;91;80;80;88;88;88;84;85;85;86;86;86;81;81;81;
0;0;0;0;91;80;80;88;88;88;84;85;85;86;86;86;81;81;81;
0;0;0;0;91;80;80;88;88;88;84;85;85;86;86;86;81;81;81;
0;0;0;0;91;80;80;88;88;88;84;85;85;86;86;86;81;81;81;
0;0;0;0;91;80;80;88;88;88;84;85;85;86;86;86;81;81;81;
0;0;0;0;91;80;80;88;88;88;84;85;85;86;86;86;81;81;81;
0;0;0;0;91;80;80;88;88;88;84;85;85;86;86;86;81;81;81;
0;0;0;0;91;80;80;88;88;88;84;85;85;86;86;86;81;81;81;
0;0;0;0;91;80;80;88;88;88;84;85;85;86;86;86;81;81;81;
0;0;0;0;91;80;80;88;88;88;84;85;85;86;86;86;81;81;81;
0;0;0;0;91;80;80;88;88;88;84;85;85;86;86;86;81;81;81;
0;0;0;0;91;80;80;88;88;88;84;85;85;86;86;86;81;81;81;
0;0;0;0;91;80;80;88;88;88;84;85;85;86;86;86;81;81;81;
0;0;0;0;91;80;80;88;88;88;84;85;85;86;86;86;81;81;81;
0;0;0;0;91;80;80;88;88;88;84;85;85;86;86;86;81;81;81;
0;0;0;0;91;80;80;88;88;88;84;85;85;86;86;86;81;81;81;
0;0;0;0;91;80;80;88;88;88;84;85;85;86;86;86;81;81;81;
0;0;0;0;91;80;80;88;88;88;84;85;85;86;86;86;81;81;81;
0;0;0;0;91;80;80;88;88;88;84;85;85;86;86;86;81;81;81;
0;0;0;0;91;80;80;88;88;88;84;85;85;86;86;86;81;81;81;
0;0;0;0;91;80;80;88;88;88;84;85;85;86;86;86;81;81;81;
0;0;0;0;91;80;80;88;88;88;84;85;85;86;86;86;81;81;81;
0;0;0;0;91;80;80;88;88;88;84;85;85;86;86;86;81;81;81;
0;0;0;0;91;80;80;88;88;88;84;85;85;86;86;86;81;81;81;
0;0;0;0;91;80;80;88;88;88;84;85;85;86;86;86;81;81;81;
0;0;0;0;91;80;80;88;88;88;84;85;85;86;86;86;81;81;81;
0;0;0;0;91;80;80;88;88;88;84;85;85;86;86;86;81;81;81;
0;0;0;0;91;80;80;88;88;88;84;85;85;86;86;86;81;81;81;
0;0;0;0;91;80;80;88;88;88;84;85;85;86;86;86;81;81;81;
0;0;0;0;91;80;80;88;88;88;84;85;85;86;86;86;81;81;81;
0;0;0;0;91;80;80;88;88;88;84;85;85;86;86;86;81;81;81;
0;0;0;0;91;80;80;88;88;88;84;85;85;86;86;86;81;81;81;
0;0;0;0;91;80;80;88;88;88;84;85;85;86;86;86;81;81;81;
0;0;0;0;91;80;80;88;88;88;84;85;85;86;86;86;81;81;81;
0;0;0;0;91;80;80;88;88;88;84;85;85;86;86;86;81;81;81;
0;0;0;0;91;80;80;88;88;88;84;85;85;86;86;86;81;81;81;
0;0;0;0;91;80;80;88;88;88;84;85;85;86;86;86;81;81;81;
0;0;0;0;91;80;80;88;88;88;84;85;85;86;86;86;81;81;81;
0;0;0;0;91;80;80;88;88;88;84;85;85;86;86;86;81;81;81;
0;0;0;0;91;80;80;88;88;88;84;85;85;86;86;86;81;81;81;
0;0;0;0;91;80;80;88;88;88;84;85;85;86;86;86;81;81;81;
0;0;0;0;91;80;80;88;88;88;84;85;85;86;86;86;81;81;81;
0;0;0;0;91;80;80;88;88;88;84;85;85;86;86;86;81;81;81;
0;0;0;0;91;80;80;88;88;88;84;85;85;86;86;86;81;81;81;
0;0;0;0;91;80;80;88;88;88;84;85;85;86;86;86;81;81;81;
0;0;0;0;92;80;80;88;88;88;84;85;85;86;86;86;81;80;80;
0;0;0;0;92;80;80;88;88;88;84;85;85;86;86;86;81;80;80;
0;0;0;0;92;80;80;88;88;88;84;85;85;86;86;86;81;80;80;
0;0;0;0;92;80;80;88;88;88;84;85;85;86;86;86;81;80;80;
0;0;0;0;92;80;80;88;88;88;84;85;85;86;86;86;81;80;80;
0;0;0;0;92;80;80;88;88;88;84;85;85;86;86;86;81;80;80;
0;0;0;0;92;80;80;88;88;88;84;85;85;86;86;86;81;80;80;
0;0;0;0;92;80;80;88;88;88;84;85;85;86;86;86;81;80;80;
0;0;0;0;92;80;80;88;88;88;84;85;85;86;86;86;81;80;80;
0;0;0;0;92;80;80;88;88;88;84;85;85;86;86;86;81;80;80;
0;0;0;0;92;80;80;88;88;88;84;85;85;86;86;86;81;80;80;
0;0;0;0;92;80;80;88;88;88;84;85;85;86;86;86;81;80;80;
0;0;0;0;92;80;80;88;88;88;84;85;85;86;86;86;81;80;80;
0;0;0;0;92;80;80;88;88;88;84;85;85;86;86;86;81;80;80;
0;0;0;0;92;80;80;88;88;88;84;85;85;86;86;86;81;80;80;
0;0;0;0;92;81;81;88;88;88;84;85;85;86;86;86;81;80;80;
0;0;0;0;92;81;81;88;88;88;84;85;85;86;86;86;81;80;80;
0;0;0;0;92;81;81;88;88;88;84;85;85;86;86;86;81;80;80;
0;0;0;0;92;81;81;88;88;88;84;85;85;86;86;86;81;80;80;
0;0;0;0;92;81;81;88;88;88;84;85;85;86;86;86;81;80;80;
0;0;0;0;92;81;81;88;88;88;84;85;85;86;86;86;81;80;80;
0;0;0;0;92;81;81;88;88;88;84;85;85;86;86;86;81;80;80;
0;0;0;0;92;81;81;88;88;88;84;85;85;86;86;86;81;80;80;
0;0;0;0;92;81;81;88;88;88;84;85;85;86;86;86;81;80;80;
0;0;0;0;92;81;81;88;88;88;84;85;85;86;86;86;81;80;80;
0;0;0;0;92;81;81;88;88;88;84;85;85;86;86;86;81;80;80;
0;0;0;0;92;81;81;88;88;88;84;85;85;86;86;86;81;80;80;
0;0;0;0;92;81;81;88;88;88;84;85;85;86;86;86;81;80;80;
0;0;0;0;92;81;81;88;88;88;84;85;85;86;86;86;81;80;80;
0;0;0;0;92;81;81;88;88;88;84;85;85;86;86;86;81;80;80;
0;0;0;0;92;81;81;88;88;88;84;85;85;86;86;86;81;80;80;
0;0;0;0;92;81;81;88;88;88;84;85;85;86;86;86;81;80;80;
0;0;0;0;92;81;81;88;88;88;84;85;85;86;86;86;81;80;80;
0;0;0;0;92;81;81;88;88;88;84;85;85;86;86;86;81;80;80;
0;0;0;0;92;81;81;88;88;88;84;85;85;86;86;86;81;80;80;
0;0;0;0;92;81;81;88;88;88;84;85;85;86;86;86;81;80;80;
0;0;0;0;93;81;81;88;88;88;84;85;85;86;86;86;81;80;80;
0;0;0;0;93;80;80;88;88;88;84;85;85;86;86;86;81;80;80;
0;0;0;0;93;80;80;88;88;88;84;85;85;86;86;86;81;80;80;
0;0;0;0;93;80;80;88;88;88;84;85;85;86;86;86;81;80;80;
0;0;0;0;93;80;80;88;88;88;84;85;85;86;86;86;81;80;80;
0;0;0;0;93;80;80;88;88;88;84;85;85;86;86;86;81;80;80;
0;0;0;0;93;80;80;88;88;88;84;85;85;86;86;86;81;80;80;
0;0;0;0;93;80;80;88;88;88;84;85;85;86;86;86;81;80;80;
0;0;0;0;93;80;80;88;88;88;84;85;85;86;86;86;81;80;80;
0;0;0;0;93;80;80;88;88;88;84;85;85;86;86;86;81;80;80;
0;0;0;0;93;80;80;88;88;88;84;85;85;86;86;86;81;80;80;
0;0;0;0;93;80;80;88;88;88;84;85;85;86;86;86;81;80;80;
0;0;0;0;93;80;80;88;88;88;84;85;85;86;86;86;81;80;80;
0;0;0;0;93;80;80;88;88;88;84;85;85;86;86;86;81;80;80;
0;0;0;0;93;80;80;88;88;88;84;85;85;86;86;86;81;80;80;
0;0;0;0;93;80;80;88;88;88;84;85;85;86;86;86;81;80;80;
0;0;0;0;93;80;80;88;88;88;84;85;85;86;86;86;81;80;80;
0;0;0;0;93;80;80;88;88;88;84;85;85;86;86;86;81;80;80;
0;0;0;0;93;80;80;88;88;88;84;85;85;86;86;86;81;80;80;
0;0;0;0;93;80;80;88;88;88;84;85;85;86;86;86;81;80;80;
0;0;0;0;93;80;80;88;88;88;84;85;85;86;86;86;81;80;80;
0;0;0;0;93;80;80;88;88;88;84;85;85;86;86;86;81;80;80;
0;0;0;0;93;80;80;88;88;88;84;85;85;86;86;86;81;80;80;
0;0;0;0;93;80;80;88;88;88;84;85;85;86;86;86;81;80;80;
0;0;0;0;93;80;80;88;88;88;84;85;85;86;86;86;81;80;80;
0;0;0;0;93;80;80;88;88;88;84;85;85;86;86;86;81;80;80;
0;0;0;0;93;80;80;88;88;88;84;85;85;86;86;86;81;80;80;
0;0;0;0;93;80;80;88;88;88;84;85;85;86;86;86;81;80;80;
0;0;0;0;93;80;80;88;88;88;84;85;85;86;86;86;81;80;80;
0;0;0;0;93;80;80;88;88;88;84;85;85;86;86;86;81;80;80;
0;0;0;0;93;80;80;88;88;88;84;85;85;86;86;86;81;80;80;
0;0;0;0;93;80;80;88;88;88;84;85;85;86;86;86;81;80;80;
0;0;0;0;93;80;80;88;88;88;84;85;85;86;86;86;81;80;80;
0;0;0;0;93;80;80;88;88;88;84;85;85;86;86;86;81;80;80;
0;0;0;0;93;80;80;88;88;88;84;85;85;86;86;86;81;80;80;
0;0;0;0;93;80;80;88;88;88;84;85;85;86;86;86;81;80;80;
0;0;0;0;93;80;80;88;88;88;84;85;85;86;86;86;81;80;80;
0;0;0;0;93;80;80;88;88;88;84;85;85;86;86;86;81;80;80;
0;0;0;0;93;80;80;88;88;88;84;85;85;86;86;86;81;80;80;
0;0;0;0;93;80;80;88;88;88;84;85;85;86;86;86;81;80;80;
0;0;0;0;93;80;80;88;88;88;84;85;85;86;86;86;81;80;80;
0;0;0;0;93;80;80;88;88;88;84;85;85;86;86;86;81;80;80;
0;0;0;0;93;80;80;88;88;88;84;85;85;86;86;86;81;80;80;
0;0;0;0;93;80;80;88;88;88;84;85;85;86;86;86;81;80;80;
0;0;0;0;93;80;80;88;88;88;84;85;85;86;86;86;81;80;80;
0;0;0;0;93;80;80;88;88;88;84;85;85;86;86;86;81;80;80;
0;0;0;0;93;80;80;88;88;88;84;85;85;86;86;86;81;80;80;
0;0;0;0;93;80;80;88;88;88;84;85;85;86;86;86;81;80;80;
0;0;0;0;93;80;80;88;88;88;84;85;85;86;86;86;81;80;80;
0;0;0;0;93;80;80;88;88;88;84;85;85;86;86;86;81;80;80;
0;0;0;0;93;80;80;88;88;88;84;85;85;86;86;86;81;80;80;
0;0;0;0;93;80;80;88;88;88;84;85;85;86;86;86;81;80;80;
0;0;0;0;93;80;80;88;88;88;84;85;85;86;86;86;81;80;80;
0;0;0;0;93;80;80;88;88;88;84;85;85;86;86;86;81;80;80;
0;0;0;0;93;80;80;88;88;88;84;85;85;86;86;86;81;80;80;
0;0;0;0;93;80;80;88;88;88;84;85;85;86;86;86;81;80;80;
0;0;0;0;93;80;80;88;88;88;84;85;85;86;86;86;81;80;80;
0;0;0;0;93;80;80;88;88;88;84;85;85;86;86;86;81;80;80;
0;0;0;0;93;80;80;88;88;88;84;84;84;86;86;86;80;80;80;
0;0;0;0;93;80;80;88;88;88;84;84;84;86;86;86;80;80;80;
0;0;0;0;93;80;80;88;88;88;84;85;85;86;86;86;80;80;80;
0;0;0;0;93;80;80;88;88;88;84;85;85;86;86;86;80;80;80;
0;0;0;0;93;80;80;88;88;88;84;85;85;86;86;86;80;80;80;
0;0;0;0;93;80;80;88;88;88;84;85;85;86;86;86;80;80;80;
0;0;0;0;93;80;80;88;88;88;84;85;85;86;86;86;80;80;80;
0;0;0;0;93;79;79;88;88;88;84;85;85;86;86;86;80;80;80;
0;0;0;0;93;79;79;88;88;88;84;85;85;86;86;86;80;80;80;
0;0;0;0;93;79;79;88;88;88;84;85;85;86;86;86;80;80;80;
0;0;0;0;93;79;79;88;88;88;84;85;85;86;86;86;80;80;80;
0;0;0;0;93;79;79;88;88;88;84;85;85;86;86;86;80;80;80;
0;0;0;0;93;79;79;88;88;88;84;85;85;86;86;86;80;80;80;
0;0;0;0;93;79;79;88;88;88;84;85;85;86;86;86;80;80;80;
0;0;0;0;93;79;79;88;88;88;84;85;85;86;86;86;80;80;80;
0;0;0;0;93;79;79;88;88;88;84;85;85;86;86;86;80;80;80;
0;0;0;0;93;79;79;88;88;88;84;85;85;86;86;86;80;80;80;
0;0;0;0;93;79;79;88;88;88;84;85;85;86;86;86;80;80;80;
0;0;0;0;93;79;79;88;88;88;84;85;85;86;86;86;80;80;80;
0;0;0;0;93;79;79;88;88;88;84;85;85;86;86;86;80;80;80;
0;0;0;0;93;79;79;88;88;88;84;85;85;86;86;86;80;80;80;
0;0;0;0;93;79;79;88;88;88;84;85;85;86;86;86;80;80;80;
0;0;0;0;93;79;79;88;88;88;84;85;85;86;86;86;80;80;80;
0;0;0;0;93;79;79;88;88;88;84;85;85;86;86;86;80;80;80;
0;0;0;0;93;79;79;88;88;88;84;85;85;86;86;86;80;80;80;
0;0;0;0;93;79;79;88;88;88;84;85;85;86;86;86;80;80;80;
0;0;0;0;93;79;79;88;88;88;84;85;85;86;86;86;80;80;80;
0;0;0;0;93;79;79;88;88;88;84;85;85;86;86;86;80;80;80;
0;0;0;0;93;79;79;88;88;88;84;85;85;86;86;86;80;80;80;
0;0;0;0;93;79;79;88;88;88;84;85;85;86;86;86;80;80;80;
0;0;0;0;93;79;79;88;88;88;84;85;85;86;86;86;80;80;80;
0;0;0;0;93;79;79;88;88;88;84;85;85;86;86;86;80;80;80;
0;0;0;0;93;79;79;88;88;88;84;85;85;86;86;86;80;80;80;
0;0;0;0;93;79;79;88;88;88;84;85;85;86;86;86;80;80;80;
0;0;0;0;93;79;79;88;88;88;84;85;85;86;86;86;80;80;80;
0;0;0;0;93;79;79;88;88;88;84;85;85;86;86;86;80;80;80;
0;0;0;0;93;79;79;88;88;88;84;85;85;86;86;86;80;80;80;
0;0;0;0;93;79;79;88;88;88;84;85;85;86;86;86;80;80;80;
0;0;0;0;93;79;79;88;88;88;84;85;85;86;86;86;80;80;80;
0;0;0;0;93;79;79;88;88;88;84;85;85;86;86;86;80;80;80;
0;0;0;0;93;79;79;88;88;88;84;85;85;86;86;86;80;80;80;
0;0;0;0;93;79;79;88;88;88;84;85;85;86;86;86;80;80;80;
0;0;0;0;93;79;79;88;88;88;84;85;85;86;86;86;80;80;80;
0;0;0;0;93;79;79;88;88;88;84;85;85;86;86;86;80;80;80;
0;0;0;0;93;79;79;88;88;88;84;85;85;86;86;86;80;80;80;
0;0;0;0;93;79;79;88;88;88;84;85;85;86;86;86;80;80;80;
0;0;0;0;93;79;79;88;88;88;84;85;85;86;86;86;80;80;80;
0;0;0;0;93;79;79;88;88;88;84;85;85;86;86;86;80;80;80;
0;0;0;0;93;79;79;88;88;88;84;85;85;86;86;86;80;80;80;
0;0;0;0;93;79;79;88;88;88;84;85;85;86;86;86;80;80;80;
0;0;0;0;93;79;79;88;88;88;84;85;85;86;86;86;80;80;80;
0;0;0;0;93;79;79;88;88;88;84;85;85;86;86;86;80;80;80;
0;0;0;0;93;79;79;88;88;88;84;85;85;86;86;86;80;80;80;
0;0;0;0;93;79;79;88;88;88;84;85;85;86;86;86;80;80;80;
0;0;0;0;93;79;79;88;88;88;84;85;85;86;86;86;80;80;80;
0;0;0;0;93;79;79;88;88;88;84;85;85;86;86;86;80;80;80;
0;0;0;0;93;79;79;88;88;88;84;85;85;86;86;86;81;80;80;
0;0;0;0;93;79;79;88;88;88;84;85;85;86;86;86;81;80;80;
0;0;0;0;93;78;78;88;88;88;84;85;85;86;86;86;81;80;80;
0;0;0;0;93;78;78;88;88;88;84;85;85;86;86;86;81;80;80;
0;0;0;0;93;78;78;88;88;88;84;85;85;86;86;86;81;80;80;
0;0;0;0;93;78;78;88;88;88;84;85;85;86;86;86;81;80;80;
0;0;0;0;93;78;78;88;88;88;84;85;85;86;86;86;81;80;80;
0;0;0;0;93;78;78;88;88;88;84;85;85;86;86;86;81;80;80;
0;0;0;0;93;78;78;88;88;88;84;85;85;86;86;86;81;80;80;
0;0;0;0;93;78;78;88;88;88;84;85;85;86;86;86;81;80;80;
0;0;0;0;93;78;78;88;88;88;84;85;85;86;86;86;81;80;80;
0;0;0;0;93;78;78;88;88;88;84;85;85;86;86;86;81;80;80;
0;0;0;0;93;78;78;88;88;88;84;85;85;86;86;86;81;80;80;
0;0;0;0;93;78;78;88;88;88;84;85;85;86;86;86;81;80;80;
0;0;0;0;93;78;78;88;88;88;84;85;85;86;86;86;81;80;80;
0;0;0;0;93;78;78;88;88;88;84;85;85;86;86;86;81;80;80;
0;0;0;0;93;78;78;88;88;88;84;85;85;86;86;86;81;80;80;
0;0;0;0;93;78;78;88;88;88;84;85;85;86;86;86;81;80;80;
0;0;0;0;93;78;78;88;88;88;84;85;85;86;86;86;81;80;80;
0;0;0;0;93;78;78;88;88;88;84;85;85;86;86;86;81;80;80;
0;0;0;0;93;78;78;88;88;88;84;85;85;86;86;86;81;80;80;
0;0;0;0;93;78;78;88;88;88;84;85;85;86;86;86;81;80;80;
0;0;0;0;93;78;78;88;88;88;84;85;85;86;86;86;81;80;80;
0;0;0;0;93;78;78;88;88;88;84;85;85;86;86;86;81;80;80;
0;0;0;0;93;78;78;88;88;88;84;85;85;86;86;86;81;80;80;
0;0;0;0;93;78;78;88;88;88;84;85;85;86;86;86;81;80;80;
0;0;0;0;93;78;78;88;88;88;84;85;85;86;86;86;81;80;80;
0;0;0;0;93;78;78;88;88;88;84;85;85;86;86;86;81;80;80;
0;0;0;0;93;78;78;88;88;88;84;85;85;86;86;86;81;80;80;
0;0;0;0;93;78;78;88;88;88;84;85;85;86;86;86;81;80;80;
0;0;0;0;93;78;78;88;88;88;84;85;85;86;86;86;81;80;80;
0;0;0;0;93;78;78;88;88;88;84;85;85;86;86;86;81;80;80;
0;0;0;0;93;78;78;88;88;88;84;85;85;86;86;86;81;80;80;
0;0;0;0;93;78;78;88;88;88;84;85;85;86;86;86;81;80;80;
0;0;0;0;92;78;78;88;88;88;84;85;85;86;86;86;81;80;80;
0;0;0;0;92;78;78;88;88;88;84;85;85;86;86;86;81;80;80;
0;0;0;0;92;78;78;88;88;88;84;85;85;86;86;86;81;80;80;
0;0;0;0;92;78;78;88;88;88;84;85;85;86;86;86;81;80;80;
0;0;0;0;92;78;78;88;88;88;84;85;85;86;86;86;81;80;80;
0;0;0;0;92;78;78;88;88;88;84;85;85;86;86;86;81;80;80;
0;0;0;0;92;78;78;88;88;88;84;85;85;86;86;86;81;80;80;
0;0;0;0;92;78;78;88;88;88;84;85;85;86;86;86;81;80;80;
0;0;0;0;92;78;78;88;88;88;84;85;85;86;86;86;81;80;80;
0;0;0;0;92;78;78;88;88;88;84;85;85;86;86;86;81;80;80;
0;0;0;0;92;78;78;88;88;88;84;85;85;86;86;86;81;80;80;
0;0;0;0;92;78;78;88;88;88;84;85;85;86;86;86;81;80;80;
0;0;0;0;92;78;78;88;88;88;84;85;85;86;86;86;81;80;80;
0;0;0;0;92;78;78;88;88;88;84;85;85;86;86;86;81;80;80;
0;0;0;0;92;78;78;88;88;88;84;85;85;86;86;86;81;80;80;
0;0;0;0;92;78;78;88;88;88;84;85;85;86;86;86;81;80;80;
0;0;0;0;92;78;78;88;88;88;84;85;85;86;86;86;81;80;80;
0;0;0;0;92;78;78;88;88;88;84;85;85;86;86;86;81;80;80;
0;0;0;0;92;78;78;88;88;88;84;85;85;86;86;86;81;80;80;
0;0;0;0;92;78;78;88;88;88;84;85;85;86;86;86;81;80;80;
0;0;0;0;92;78;78;88;88;88;84;85;85;86;86;86;81;80;80;
0;0;0;0;92;78;78;88;88;88;84;85;85;86;86;86;81;80;80;
0;0;0;0;92;78;78;88;88;88;84;85;85;86;86;86;81;80;80;
0;0;0;0;92;78;78;88;88;88;84;85;85;86;86;86;81;80;80;
0;0;0;0;92;78;78;88;88;88;84;85;85;86;86;86;81;80;80;
0;0;0;0;92;78;78;88;88;88;84;85;85;86;86;86;81;80;80;
0;0;0;0;92;78;78;88;88;88;84;85;85;86;86;86;81;80;80;
0;0;0;0;92;78;78;88;88;88;84;85;85;86;86;86;81;80;80;
0;0;0;0;92;78;78;88;88;88;84;85;85;86;86;86;81;80;80;
0;0;0;0;92;78;78;88;88;88;84;85;85;86;86;86;81;80;80;
0;0;0;0;92;78;78;88;88;88;84;85;85;86;86;86;81;80;80;
0;0;0;0;92;78;78;88;88;88;84;85;85;86;86;86;81;80;80;
0;0;0;0;92;78;78;88;88;88;84;85;85;86;86;86;81;80;80;
0;0;0;0;92;78;78;88;88;88;84;85;85;86;86;86;81;80;80;
0;0;0;0;92;78;78;88;88;88;84;85;85;86;86;86;81;81;81;
0;0;0;0;92;78;78;88;88;88;84;85;85;86;86;86;81;81;81;
0;0;0;0;92;78;78;88;88;88;84;85;85;86;86;86;81;81;81;
0;0;0;0;92;78;78;88;88;88;84;85;85;86;86;86;81;81;81;
0;0;0;0;92;78;78;88;88;88;84;85;85;86;86;86;81;81;81;
0;0;0;0;92;78;78;88;88;88;84;85;85;86;86;86;81;81;81;
0;0;0;0;92;78;78;88;88;88;84;85;85;86;86;86;81;81;81;
0;0;0;0;92;78;78;88;88;88;84;85;85;86;86;86;81;81;81;
0;0;0;0;92;78;78;88;88;88;84;85;85;86;86;86;81;81;81;
0;0;0;0;92;78;78;88;88;88;84;85;85;86;86;86;81;81;81;
0;0;0;0;92;78;78;88;88;88;84;85;85;86;86;86;81;81;81;
0;0;0;0;92;78;78;88;88;88;84;85;85;86;86;86;81;81;81;
0;0;0;0;92;78;78;88;88;88;84;85;85;86;86;86;81;81;81;
0;0;0;0;92;78;78;88;88;88;84;85;85;86;86;86;81;81;81;
0;0;0;0;92;78;78;88;88;88;84;85;85;86;86;86;81;81;81;
0;0;0;0;92;78;78;88;88;88;84;85;85;86;86;86;81;81;81;
0;0;0;0;92;78;78;88;88;88;84;85;85;86;86;86;81;81;81;
0;0;0;0;92;78;78;88;88;88;84;85;85;86;86;86;81;81;81;
0;0;0;0;92;78;78;88;88;88;84;85;85;86;86;86;81;81;81;
0;0;0;0;92;78;78;88;88;88;84;85;85;86;86;86;81;81;81;
0;0;0;0;92;78;78;88;88;88;84;85;85;86;86;86;81;81;81;
0;0;0;0;92;78;78;88;88;88;84;85;85;86;86;86;81;81;81;
0;0;0;0;92;78;78;88;88;88;84;85;85;86;86;86;81;81;81;
0;0;0;0;92;78;78;88;88;88;84;85;85;86;86;86;81;81;81;
0;0;0;0;92;78;78;88;88;88;84;85;85;86;86;86;81;81;81;
0;0;0;0;92;78;78;88;88;88;84;85;85;86;86;86;81;81;81;
0;0;0;0;92;78;78;88;88;88;84;85;85;86;86;86;81;81;81;
0;0;0;0;92;78;78;88;88;88;84;85;85;86;86;86;81;81;81;
0;0;0;0;92;78;78;88;88;88;84;85;85;86;86;86;81;81;81;
0;0;0;0;92;78;78;88;88;88;84;85;85;86;86;86;81;81;81;
0;0;0;0;92;78;78;88;88;88;84;85;85;86;86;86;81;81;81;
0;0;0;0;92;78;78;88;88;88;84;85;85;86;86;86;81;81;81;
0;0;0;0;92;78;78;88;88;88;84;85;85;86;86;86;81;81;81;
0;0;0;0;92;78;78;88;88;88;84;85;85;86;86;86;81;81;81;
0;0;0;0;92;78;78;88;88;88;84;85;85;86;86;86;81;81;81;
0;0;0;0;92;78;78;88;88;88;84;85;85;86;86;86;81;81;81;
0;0;0;0;92;78;78;88;88;88;84;85;85;86;86;86;81;81;81;
0;0;0;0;92;78;78;88;88;88;84;85;85;86;86;86;81;81;81;
0;0;0;0;92;78;78;88;88;88;84;85;85;86;86;86;81;81;81;
0;0;0;0;92;78;78;88;88;88;84;85;85;86;86;86;81;81;81;
0;0;0;0;92;78;78;88;88;88;84;85;85;86;86;86;81;81;81;
0;0;0;0;92;78;78;88;88;88;84;85;85;86;86;86;81;81;81;
0;0;0;0;92;78;78;88;88;88;84;85;85;86;86;86;81;81;81;
0;0;0;0;92;78;78;88;88;88;84;85;85;86;86;86;81;81;81;
0;0;0;0;92;78;78;88;88;88;84;85;85;86;86;86;81;81;81;
0;0;0;0;92;78;78;88;88;88;84;85;85;86;86;86;81;81;81;
0;0;0;0;92;78;78;88;88;88;85;85;85;86;86;86;81;81;81;
0;0;0;0;92;78;78;88;88;88;85;85;85;86;86;86;81;81;81;
0;0;0;0;92;78;78;88;88;88;85;85;85;86;86;86;81;81;81;
0;0;0;0;92;78;78;88;88;88;85;85;85;86;86;86;81;81;81;
0;0;0;0;92;78;78;88;88;88;85;85;85;86;86;86;81;81;81;
0;0;0;0;92;78;78;88;88;88;85;85;85;86;86;86;81;81;81;
0;0;0;0;92;78;78;88;88;88;85;85;85;86;86;86;81;81;81;
0;0;0;0;92;77;77;88;88;88;85;85;85;86;86;86;81;81;81;
0;0;0;0;92;77;77;88;88;88;85;85;85;86;86;86;82;81;81;
0;0;0;0;92;77;77;88;88;88;85;85;85;86;86;86;82;81;81;
0;0;0;0;92;77;77;88;88;88;85;85;85;86;86;86;82;81;81;
0;0;0;0;92;77;77;88;88;88;85;85;85;86;86;86;82;81;81;
0;0;0;0;92;77;77;88;88;88;85;85;85;86;86;86;82;81;81;
0;0;0;0;92;77;77;88;88;88;85;85;85;86;86;86;82;81;81;
0;0;0;0;92;77;77;88;88;88;85;85;85;86;86;86;82;81;81;
0;0;0;0;92;77;77;88;88;88;85;85;85;86;86;86;82;81;81;
0;0;0;0;92;77;77;88;88;88;85;85;85;86;86;86;82;81;81;
0;0;0;0;92;77;77;88;88;88;85;85;85;86;86;86;82;81;81;
0;0;0;0;92;77;77;88;88;88;85;85;85;86;86;86;82;81;81;
0;0;0;0;92;77;77;88;88;88;85;85;85;86;86;86;82;81;81;
0;0;0;0;92;77;77;88;88;88;85;85;85;86;86;86;82;81;81;
0;0;0;0;92;77;77;88;88;88;85;85;85;86;86;86;82;81;81;
0;0;0;0;92;77;77;88;88;88;85;85;85;86;86;86;82;81;81;
0;0;0;0;92;77;77;88;88;88;85;85;85;86;86;86;82;81;81;
0;0;0;0;92;77;77;88;88;88;85;85;85;86;86;86;82;81;81;
0;0;0;0;92;77;77;88;88;88;85;85;85;86;86;86;82;81;81;
0;0;0;0;92;77;77;88;88;88;85;85;85;86;86;86;82;81;81;
0;0;0;0;92;77;77;88;88;88;85;85;85;86;86;86;82;81;81;
0;0;0;0;92;77;77;88;88;88;85;85;85;86;86;86;82;81;81;
0;0;0;0;92;77;77;88;88;88;85;85;85;86;86;86;82;81;81;
0;0;0;0;92;77;77;88;88;88;85;85;85;86;86;86;82;81;81;
0;0;0;0;92;77;77;88;88;88;85;85;85;86;86;86;82;81;81;
0;0;0;0;92;77;77;88;88;88;85;85;85;86;86;86;82;81;81;
0;0;0;0;92;77;77;88;88;88;85;85;85;86;86;86;82;81;81;
0;0;0;0;92;77;77;88;88;88;85;85;85;86;86;86;82;81;81;
0;0;0;0;92;77;77;88;88;88;85;85;85;86;86;86;82;81;81;
0;0;0;0;92;77;77;88;88;88;85;85;85;86;86;86;82;81;81;
0;0;0;0;92;77;77;88;88;88;85;85;85;86;86;86;82;81;81;
0;0;0;0;92;77;77;88;88;88;85;85;85;86;86;86;82;81;81;
0;0;0;0;92;77;77;88;88;88;85;85;85;86;86;86;82;81;81;
0;0;0;0;92;77;77;88;88;88;85;85;85;86;86;86;82;81;81;
0;0;0;0;92;77;77;88;88;88;85;85;85;86;86;86;82;81;81;
0;0;0;0;92;77;77;88;88;88;85;85;85;86;86;86;82;81;81;
0;0;0;0;92;77;77;88;88;88;85;85;85;86;86;86;82;81;81;
0;0;0;0;92;77;77;88;88;88;85;85;85;86;86;86;82;81;81;
0;0;0;0;92;77;77;88;88;88;85;85;85;86;86;86;82;81;81;
0;0;0;0;92;77;77;88;88;88;85;85;85;86;86;86;82;81;81;
0;0;0;0;92;77;77;88;88;88;85;85;85;86;86;86;82;81;81;
0;0;0;0;92;77;77;88;88;88;85;85;85;86;86;86;82;81;81;
0;0;0;0;92;77;77;88;88;88;85;85;85;86;86;86;82;81;81;
0;0;0;0;92;77;77;88;88;88;85;85;85;86;86;86;82;81;81;
0;0;0;0;92;77;77;88;88;88;85;85;85;86;86;86;82;81;81;
0;0;0;0;92;77;77;88;88;88;85;85;85;86;86;86;82;81;81;
0;0;0;0;92;77;77;88;88;88;85;85;85;86;86;86;82;81;81;
0;0;0;0;92;77;77;88;88;88;85;85;85;86;86;86;82;81;81;
0;0;0;0;92;77;77;88;88;88;85;85;85;86;86;86;82;81;81;
0;0;0;0;92;77;77;88;88;88;85;85;85;86;86;86;82;81;81;
0;0;0;0;92;77;77;88;88;88;85;85;85;86;86;86;82;81;81;
0;0;0;0;92;77;77;88;88;88;85;85;85;86;86;86;82;81;81;
0;0;0;0;92;77;77;88;88;88;85;85;85;86;86;86;82;81;81;
0;0;0;0;92;77;77;88;88;88;85;85;85;86;86;86;82;81;81;
0;0;0;0;91;77;77;88;88;88;85;85;85;86;86;86;81;81;81;
0;0;0;0;91;77;77;88;88;88;85;85;85;86;86;86;81;81;81;
0;0;0;0;91;77;77;88;88;88;85;85;85;86;86;86;81;81;81;
0;0;0;0;91;77;77;88;88;88;85;85;85;86;86;86;81;81;81;
0;0;0;0;91;77;77;88;88;88;85;85;85;86;86;86;81;81;81;
0;0;0;0;91;77;77;88;88;88;85;85;85;86;86;86;81;81;81;
0;0;0;0;91;77;77;88;88;88;85;85;85;86;86;86;81;81;81;
0;0;0;0;91;77;77;88;88;88;85;85;85;86;86;86;81;81;81;
0;0;0;0;91;77;77;88;88;88;85;85;85;86;86;86;81;81;81;
0;0;0;0;91;77;77;88;88;88;85;85;85;86;86;86;81;81;81;
0;0;0;0;91;77;77;88;88;88;85;85;85;86;86;86;81;81;81;
0;0;0;0;91;77;77;88;88;88;85;85;85;86;86;86;81;81;81;
0;0;0;0;91;77;77;88;88;88;85;85;85;86;86;86;81;81;81;
0;0;0;0;91;77;77;88;88;88;85;85;85;86;86;86;81;81;81;
0;0;0;0;91;77;77;88;88;88;85;85;85;86;86;86;81;81;81;
0;0;0;0;91;77;77;88;88;88;85;85;85;86;86;86;81;81;81;
0;0;0;0;91;77;77;88;88;88;85;85;85;86;86;86;81;81;81;
0;0;0;0;91;77;77;88;88;88;85;85;85;86;86;86;81;81;81;
0;0;0;0;91;77;77;88;88;88;85;85;85;86;86;86;81;81;81;
0;0;0;0;91;77;77;88;88;88;85;85;85;86;86;86;81;81;81;
0;0;0;0;91;77;77;88;88;88;85;85;85;86;86;86;81;81;81;
0;0;0;0;91;77;77;88;88;88;85;85;85;86;86;86;81;81;81;
0;0;0;0;91;77;77;88;88;88;85;85;85;86;86;86;81;81;81;
0;0;0;0;91;77;77;88;88;88;85;85;85;86;86;86;81;81;81;
0;0;0;0;91;77;77;88;88;88;85;85;85;86;86;86;81;81;81;
0;0;0;0;91;77;77;88;88;88;85;85;85;86;86;86;81;81;81;
0;0;0;0;91;77;77;88;88;88;85;85;85;86;86;86;81;81;81;
0;0;0;0;91;77;77;88;88;88;85;85;85;86;86;86;81;81;81;
0;0;0;0;91;77;77;88;88;88;85;85;85;86;86;86;81;81;81;
0;0;0;0;91;77;77;88;88;88;85;85;85;86;86;86;81;81;81;
0;0;0;0;91;77;77;88;88;88;85;85;85;86;86;86;81;81;81;
0;0;0;0;91;77;77;88;88;88;85;85;85;86;86;86;81;81;81;
0;0;0;0;91;77;77;88;88;88;85;85;85;86;86;86;81;81;81;
0;0;0;0;91;77;77;88;88;88;85;85;85;86;86;86;81;81;81;
0;0;0;0;91;77;77;88;88;88;85;85;85;86;86;86;81;81;81;
0;0;0;0;91;77;77;88;88;88;85;85;85;86;86;86;81;81;81;
0;0;0;0;91;77;77;88;88;88;85;85;85;86;86;86;81;81;81;
0;0;0;0;91;77;77;88;88;88;85;85;85;86;86;86;81;81;81;
0;0;0;0;91;77;77;88;88;88;85;85;85;86;86;86;81;81;81;
0;0;0;0;91;77;77;88;88;88;85;85;85;86;86;86;81;81;81;
0;0;0;0;91;77;77;88;88;88;85;85;85;86;86;86;81;81;81;
0;0;0;0;91;77;77;88;88;88;85;85;85;86;86;86;81;81;81;
0;0;0;0;91;77;77;88;88;88;85;85;85;86;86;86;81;81;81;
0;0;0;0;91;77;77;88;88;88;85;85;85;86;86;86;81;81;81;
0;0;0;0;91;77;77;88;88;88;85;85;85;86;86;86;81;81;81;
0;0;0;0;91;77;77;88;88;88;85;85;85;86;86;86;81;81;81;
0;0;0;0;91;77;77;88;88;88;85;85;85;86;86;86;81;81;81;
0;0;0;0;91;77;77;88;88;88;85;85;85;86;86;86;81;81;81;
0;0;0;0;91;77;77;88;88;88;85;85;85;86;86;86;81;81;81;
0;0;0;0;91;77;77;88;88;88;85;85;85;86;86;86;81;81;81;
0;0;0;0;91;77;77;88;88;88;85;85;85;86;86;86;81;81;81;
0;0;0;0;91;77;77;88;88;88;85;85;85;86;86;86;81;81;81;
0;0;0;0;91;77;77;88;88;88;85;85;85;86;86;86;81;81;81;
0;0;0;0;91;77;77;88;88;88;85;85;85;86;86;86;81;81;81;
0;0;0;0;91;77;77;88;88;88;85;85;85;86;86;86;81;81;81;
0;0;0;0;91;77;77;88;88;88;85;85;85;86;86;86;81;81;81;
0;0;0;0;91;77;77;88;88;88;85;85;85;86;86;86;81;81;81;
0;0;0;0;91;77;77;88;88;88;85;85;85;86;86;86;81;81;81;
0;0;0;0;91;77;77;88;88;88;85;85;85;86;86;86;81;81;81;
0;0;0;0;91;77;77;88;88;88;85;85;85;86;86;86;81;81;81;
0;0;0;0;91;77;77;88;88;88;85;85;85;86;86;86;81;81;81;
0;0;0;0;91;77;77;88;88;88;85;85;85;86;86;86;81;81;81;
0;0;0;0;91;77;77;88;88;88;85;85;85;86;86;86;81;81;81;
0;0;0;0;91;77;77;88;88;88;85;85;85;86;86;86;81;81;81;
0;0;0;0;91;77;77;88;88;88;85;85;85;86;86;86;81;81;81;
0;0;0;0;91;77;77;88;88;88;85;85;85;86;86;86;81;81;81;
0;0;0;0;91;77;77;88;88;88;85;85;85;86;86;86;81;81;81;
0;0;0;0;91;77;77;88;88;88;85;85;85;86;86;86;81;81;81;
0;0;0;0;91;77;77;88;88;88;85;85;85;86;86;86;81;81;81;
0;0;0;0;91;77;77;88;88;88;85;85;85;86;86;86;81;81;81;
0;0;0;0;91;77;77;88;88;88;85;85;85;86;86;86;81;81;81;
0;0;0;0;91;77;77;88;88;88;85;85;85;86;86;86;81;81;81;
0;0;0;0;91;77;77;88;88;88;85;85;85;86;86;86;81;81;81;
0;0;0;0;91;77;77;88;88;88;85;85;85;86;86;86;81;81;81;
0;0;0;0;91;77;77;88;88;88;85;85;85;86;86;86;81;81;81;
0;0;0;0;90;77;77;88;88;88;85;85;85;86;86;86;81;81;81;
0;0;0;0;90;77;77;88;88;88;85;85;85;86;86;86;81;81;81;
0;0;0;0;90;77;77;88;88;88;85;85;85;86;86;86;81;81;81;
0;0;0;0;90;77;77;88;88;88;85;85;85;86;86;86;81;81;81;
0;0;0;0;90;77;77;88;88;88;85;85;85;86;86;86;81;81;81;
0;0;0;0;90;77;77;88;88;88;85;85;85;86;86;86;81;81;81;
0;0;0;0;90;77;77;88;88;88;85;85;85;86;86;86;81;81;81;
0;0;0;0;90;77;77;88;88;88;85;85;85;86;86;86;81;81;81;
0;0;0;0;90;77;77;88;88;88;85;85;85;86;86;86;81;81;81;
0;0;0;0;90;77;77;88;88;88;85;85;85;86;86;86;81;81;81;
0;0;0;0;90;77;77;88;88;88;85;85;85;86;86;86;81;81;81;
0;0;0;0;90;77;77;88;88;88;85;85;85;86;86;86;81;81;81;
0;0;0;0;90;77;77;88;88;88;85;85;85;86;86;86;81;81;81;
0;0;0;0;90;77;77;88;88;88;85;85;85;86;86;86;81;81;81;
0;0;0;0;90;77;77;88;88;88;85;85;85;86;86;86;81;81;81;
0;0;0;0;90;77;77;88;88;88;85;85;85;86;86;86;81;81;81;
0;0;0;0;90;77;77;88;88;88;85;85;85;86;86;86;81;81;81;
0;0;0;0;90;77;77;88;88;88;85;85;85;86;86;86;81;81;81;
0;0;0;0;90;77;77;88;88;88;85;85;85;86;86;86;81;81;81;
0;0;0;0;90;77;77;88;88;88;85;85;85;86;86;86;81;81;81;
0;0;0;0;90;77;77;88;88;88;85;85;85;86;86;86;81;81;81;
0;0;0;0;90;77;77;88;88;88;85;85;85;86;86;86;81;81;81;
0;0;0;0;90;77;77;88;88;88;85;85;85;86;86;86;81;81;81;
0;0;0;0;90;77;77;88;88;88;85;85;85;86;86;86;81;81;81;
0;0;0;0;90;77;77;88;88;88;85;85;85;86;86;86;81;81;81;
0;0;0;0;90;77;77;88;88;88;85;85;85;86;86;86;81;81;81;
0;0;0;0;90;77;77;88;88;88;85;85;85;86;86;86;81;81;81;
0;0;0;0;90;77;77;88;88;88;85;85;85;86;86;86;81;81;81;
0;0;0;0;90;77;77;88;88;88;85;85;85;86;86;86;81;81;81;
0;0;0;0;90;77;77;88;88;88;85;85;85;86;86;86;81;81;81;
0;0;0;0;90;77;77;88;88;88;85;85;85;86;86;86;81;81;81;
0;0;0;0;90;77;77;88;88;88;85;85;85;86;86;86;81;81;81;
0;0;0;0;90;77;77;88;88;88;85;85;85;86;86;86;81;81;81;
0;0;0;0;90;77;77;88;88;88;85;85;85;86;86;86;81;81;81;
0;0;0;0;90;77;77;88;88;88;85;85;85;86;86;86;81;81;81;
0;0;0;0;90;77;77;88;88;88;85;85;85;86;86;86;81;81;81;
0;0;0;0;90;77;77;88;88;88;85;85;85;86;86;86;81;81;81;
0;0;0;0;90;77;77;88;88;88;85;85;85;86;86;86;81;81;81;
0;0;0;0;90;77;77;88;88;88;85;85;85;86;86;86;81;81;81;
0;0;0;0;90;77;77;88;88;88;85;85;85;86;86;86;81;81;81;
0;0;0;0;90;77;77;88;88;88;85;85;85;86;86;86;81;81;81;
0;0;0;0;90;77;77;88;88;88;85;85;85;86;86;86;81;81;81;
0;0;0;0;90;77;77;88;88;88;85;85;85;86;86;86;81;81;81;
0;0;0;0;90;77;77;88;88;88;84;85;85;86;86;86;81;81;81;
0;0;0;0;90;77;77;88;88;88;84;85;85;86;86;86;81;81;81;
0;0;0;0;90;77;77;88;88;88;84;85;85;86;86;86;81;81;81;
0;0;0;0;90;77;77;88;88;88;84;85;85;86;86;86;81;81;81;
0;0;0;0;90;77;77;88;88;88;84;85;85;86;86;86;81;81;81;
0;0;0;0;90;77;77;88;88;88;84;85;85;86;86;86;81;81;81;
0;0;0;0;90;77;77;88;88;88;84;85;85;86;86;86;81;81;81;
0;0;0;0;90;77;77;88;88;88;84;85;85;86;86;86;81;81;81;
0;0;0;0;90;77;77;88;88;88;84;85;85;86;86;86;81;81;81;
0;0;0;0;90;77;77;88;88;88;84;85;85;86;86;86;81;81;81;
0;0;0;0;90;77;77;88;88;88;84;85;85;86;86;86;81;81;81;
0;0;0;0;90;77;77;88;88;88;84;85;85;86;86;86;81;81;81;
0;0;0;0;90;77;77;88;88;88;84;85;85;86;86;86;81;81;81;
0;0;0;0;90;77;77;88;88;88;84;85;85;86;86;86;81;81;81;
0;0;0;0;90;77;77;88;88;88;84;85;85;86;86;86;81;81;81;
0;0;0;0;90;77;77;88;88;88;84;85;85;86;86;86;81;81;81;
0;0;0;0;90;77;77;88;88;88;84;85;85;86;86;86;81;81;81;
0;0;0;0;90;77;77;88;88;88;84;85;85;86;86;86;81;81;81;
0;0;0;0;90;77;77;88;88;88;85;85;85;86;86;86;81;81;81;
0;0;0;0;90;77;77;88;88;88;85;85;85;86;86;86;81;81;81;
0;0;0;0;90;77;77;88;88;88;85;85;85;86;86;86;81;81;81;
0;0;0;0;90;77;77;88;88;88;85;85;85;86;86;86;81;81;81;
0;0;0;0;90;77;77;88;88;88;85;85;85;86;86;86;81;81;81;
0;0;0;0;90;77;77;88;88;88;85;85;85;86;86;86;81;81;81;
0;0;0;0;90;77;77;88;88;88;85;85;85;86;86;86;81;81;81;
0;0;0;0;90;77;77;88;88;88;85;85;85;86;86;86;81;81;81;
0;0;0;0;90;77;77;88;88;88;84;85;85;86;86;86;81;81;81;
0;0;0;0;90;77;77;88;88;88;84;85;85;86;86;86;81;81;81;
0;0;0;0;90;77;77;88;88;88;84;85;85;86;86;86;81;81;81;
0;0;0;0;90;77;77;88;88;88;84;85;85;86;86;86;81;81;81;
0;0;0;0;90;77;77;88;88;88;84;85;85;86;86;86;81;81;81;
0;0;0;0;90;77;77;88;88;88;84;85;85;86;86;86;81;81;81;
0;0;0;0;90;77;77;88;88;88;84;85;85;86;86;86;81;81;81;
0;0;0;0;90;77;77;88;88;88;84;85;85;86;86;86;81;81;81;
0;0;0;0;90;77;77;88;88;88;84;85;85;86;86;86;81;81;81;
0;0;0;0;90;77;77;88;88;88;84;85;85;86;86;86;81;81;81;
0;0;0;0;90;77;77;88;88;88;84;85;85;86;86;86;81;81;81;
0;0;0;0;90;77;77;88;88;88;84;85;85;86;86;86;81;81;81;
0;0;0;0;90;77;77;88;88;88;84;85;85;86;86;86;81;81;81;
0;0;0;0;90;77;77;88;88;88;84;85;85;86;86;86;81;81;81;
0;0;0;0;90;77;77;88;88;88;84;85;85;86;86;86;81;81;81;
0;0;0;0;90;77;77;88;88;88;84;85;85;86;86;86;81;81;81;
0;0;0;0;90;77;77;88;88;88;84;85;85;86;86;86;81;81;81;
0;0;0;0;90;77;77;88;88;88;84;85;85;86;86;86;81;81;81;
0;0;0;0;90;77;77;88;88;88;84;85;85;86;86;86;81;81;81;
0;0;0;0;90;77;77;88;88;88;84;85;85;86;86;86;81;81;81;
0;0;0;0;90;77;77;88;88;88;84;85;85;86;86;86;81;81;81;
0;0;0;0;90;77;77;88;88;88;84;85;85;86;86;86;81;81;81;
0;0;0;0;90;77;77;88;88;88;84;85;85;86;86;86;81;81;81;
0;0;0;0;90;77;77;88;88;88;84;85;85;86;86;86;81;81;81;
0;0;0;0;90;77;77;88;88;88;84;85;85;86;86;86;81;81;81;
0;0;0;0;90;77;77;88;88;88;84;85;85;86;86;86;81;81;81;
0;0;0;0;90;77;77;88;88;88;84;85;85;86;86;86;81;81;81;
0;0;0;0;90;77;77;88;88;88;84;85;85;86;86;86;81;81;81;
0;0;0;0;90;77;77;88;88;88;84;85;85;86;86;86;81;81;81;
0;0;0;0;90;77;77;88;88;88;84;85;85;86;86;86;81;81;81;
0;0;0;0;90;77;77;88;88;88;84;85;85;86;86;86;81;81;81;
0;0;0;0;90;77;77;88;88;88;84;85;85;86;86;86;81;81;81;
0;0;0;0;90;77;77;88;88;88;84;85;85;86;86;86;81;81;81;
0;0;0;0;90;77;77;88;88;88;84;85;85;86;86;86;81;81;81;
0;0;0;0;90;77;77;88;88;88;84;85;85;86;86;86;81;81;81;
0;0;0;0;90;77;77;88;88;88;84;85;85;86;86;86;81;81;81;
0;0;0;0;90;77;77;88;88;88;84;85;85;86;86;86;81;81;81;
0;0;0;0;90;77;77;88;88;88;84;85;85;86;86;86;81;81;81;
0;0;0;0;90;77;77;88;88;88;84;85;85;86;86;86;81;81;81;
0;0;0;0;90;77;77;88;88;88;84;85;85;86;86;86;81;81;81;
0;0;0;0;90;77;77;88;88;88;84;85;85;86;86;86;81;81;81;
0;0;0;0;90;77;77;88;88;88;84;85;85;86;86;86;81;81;81;
0;0;0;0;90;77;77;88;88;88;84;85;85;86;86;86;81;81;81;
0;0;0;0;90;77;77;88;88;88;84;85;85;86;86;86;81;81;81;
0;0;0;0;90;77;77;88;88;88;84;85;85;86;86;86;81;81;81;
0;0;0;0;90;77;77;88;88;88;84;85;85;86;86;86;81;81;81;
0;0;0;0;90;77;77;88;88;88;84;85;85;86;86;86;81;81;81;
0;0;0;0;90;77;77;88;88;88;84;85;85;86;86;86;81;81;81;
0;0;0;0;90;77;77;88;88;88;84;85;85;86;86;86;81;81;81;
0;0;0;0;90;77;77;88;88;88;84;85;85;86;86;86;81;81;81;
0;0;0;0;90;77;77;88;88;88;84;85;85;86;86;86;81;81;81;
0;0;0;0;90;77;77;88;88;88;84;85;85;86;86;86;81;81;81;
0;0;0;0;90;77;77;88;88;88;84;85;85;86;86;86;81;81;81;
0;0;0;0;90;77;77;88;88;88;84;85;85;86;86;86;81;81;81;
0;0;0;0;90;77;77;88;88;88;84;85;85;86;86;86;81;81;81;
0;0;0;0;90;77;77;88;88;88;84;85;85;86;86;86;81;81;81;
0;0;0;0;90;77;77;88;88;88;84;85;85;86;86;86;81;81;81;
0;0;0;0;90;77;77;88;88;88;84;85;85;86;86;86;81;81;81;
0;0;0;0;90;77;77;88;88;88;84;85;85;86;86;86;81;81;81;
0;0;0;0;90;77;77;88;88;88;84;85;85;86;86;86;81;81;81;
0;0;0;0;90;77;77;88;88;88;84;85;85;86;86;86;81;81;81;
0;0;0;0;90;77;77;88;88;88;84;85;85;86;86;86;81;81;81;
0;0;0;0;90;77;77;88;88;88;84;85;85;86;86;86;81;81;81;
0;0;0;0;90;77;77;88;88;88;84;85;85;86;86;86;81;81;81;
0;0;0;0;90;77;77;88;88;88;84;85;85;86;86;86;81;81;81;
0;0;0;0;90;77;77;88;88;88;84;85;85;86;86;86;81;81;81;
0;0;0;0;90;77;77;88;88;88;84;85;85;86;86;86;81;81;81;
0;0;0;0;90;77;77;88;88;88;84;85;85;86;86;86;81;81;81;
0;0;0;0;90;77;77;88;88;88;85;85;85;86;86;86;81;81;81;
0;0;0;0;90;77;77;88;88;88;85;85;85;86;86;86;81;81;81;
0;0;0;0;90;77;77;88;88;88;85;85;85;86;86;86;81;81;81;
0;0;0;0;90;77;77;88;88;88;85;85;85;86;86;86;81;81;81;
0;0;0;0;90;77;77;88;88;88;85;85;85;86;86;86;81;81;81;
0;0;0;0;90;77;77;88;88;88;85;85;85;86;86;86;81;81;81;
0;0;0;0;90;77;77;88;88;88;85;85;85;86;86;86;81;81;81;
0;0;0;0;90;77;77;88;88;88;85;85;85;86;86;86;81;81;81;
0;0;0;0;90;77;77;88;88;88;85;85;85;86;86;86;81;81;81;
0;0;0;0;90;77;77;88;88;88;85;85;85;86;86;86;81;81;81;
0;0;0;0;90;77;77;88;88;88;85;85;85;86;86;86;81;81;81;
0;0;0;0;90;77;77;88;88;88;85;85;85;86;86;86;81;81;81;
0;0;0;0;90;77;77;88;88;88;85;85;85;86;86;86;81;81;81;
0;0;0;0;90;77;77;88;88;88;85;85;85;86;86;86;81;81;81;
0;0;0;0;90;77;77;88;88;88;85;85;85;86;86;86;81;81;81;
0;0;0;0;90;77;77;88;88;88;85;85;85;86;86;86;81;81;81;
0;0;0;0;90;77;77;88;88;88;85;85;85;86;86;86;81;81;81;
0;0;0;0;90;77;77;88;88;88;85;85;85;86;86;86;81;81;81;
0;0;0;0;90;77;77;88;88;88;85;85;85;86;86;86;81;81;81;
0;0;0;0;90;77;77;88;88;88;85;85;85;86;86;86;81;81;81;
0;0;0;0;90;77;77;88;88;88;85;85;85;86;86;86;81;81;81;
0;0;0;0;90;77;77;88;88;88;85;85;85;86;86;86;81;81;81;
0;0;0;0;90;77;77;88;88;88;85;85;85;86;86;86;81;81;81;
0;0;0;0;90;77;77;88;88;88;85;85;85;86;86;86;81;81;81;
0;0;0;0;90;77;77;88;88;88;85;85;85;86;86;86;81;81;81;
0;0;0;0;90;77;77;88;88;88;85;85;85;86;86;86;81;81;81;
0;0;0;0;90;77;77;88;88;88;85;85;85;86;86;86;81;81;81;
0;0;0;0;90;77;77;88;88;88;85;85;85;86;86;86;81;81;81;
0;0;0;0;90;77;77;88;88;88;85;85;85;86;86;86;81;81;81;
0;0;0;0;90;77;77;88;88;88;85;85;85;86;86;86;81;81;81;
0;0;0;0;90;77;77;88;88;88;85;85;85;86;86;86;81;81;81;
0;0;0;0;90;77;77;88;88;88;85;85;85;86;86;86;81;81;81;
0;0;0;0;90;77;77;88;88;88;85;85;85;86;86;86;81;81;81;
0;0;0;0;90;77;77;88;88;88;85;85;85;86;86;86;81;81;81;
0;0;0;0;90;77;77;88;88;88;85;85;85;86;86;86;81;81;81;
0;0;0;0;90;77;77;88;88;88;85;85;85;86;86;86;81;81;81;
0;0;0;0;90;77;77;88;88;88;85;85;85;86;86;86;81;81;81;
0;0;0;0;90;77;77;88;88;88;85;85;85;86;86;86;81;81;81;
0;0;0;0;90;77;77;88;88;88;85;85;85;86;86;86;81;81;81;
0;0;0;0;90;77;77;88;88;88;85;85;85;86;86;86;81;81;81;
0;0;0;0;90;77;77;88;88;88;85;85;85;86;86;86;81;81;81;
0;0;0;0;90;77;77;88;88;88;85;85;85;86;86;86;81;81;81;
0;0;0;0;90;77;77;88;88;88;85;85;85;86;86;86;81;81;81;
0;0;0;0;90;77;77;88;88;88;85;85;85;86;86;86;81;81;81;
0;0;0;0;90;77;77;88;88;88;85;85;85;86;86;86;81;81;81;
0;0;0;0;90;77;77;88;88;88;85;85;85;86;86;86;81;81;81;
0;0;0;0;90;77;77;88;88;88;85;85;85;86;86;86;81;81;81;
0;0;0;0;90;77;77;88;88;88;85;85;85;86;86;86;81;81;81;
0;0;0;0;90;77;77;88;88;88;85;85;85;86;86;86;81;81;81;
0;0;0;0;90;77;77;88;88;88;85;85;85;86;86;86;81;81;81;
0;0;0;0;90;77;77;88;88;88;85;85;85;86;86;86;81;81;81;
0;0;0;0;90;77;77;88;88;88;85;85;85;86;86;86;81;81;81;
0;0;0;0;90;77;77;88;88;88;85;85;85;86;86;86;81;81;81;
0;0;0;0;90;77;77;88;88;88;85;85;85;86;86;86;81;81;81;
0;0;0;0;90;77;77;88;88;88;85;85;85;86;86;86;81;81;81;
0;0;0;0;90;77;77;88;88;88;85;85;85;86;86;86;81;81;81;
0;0;0;0;90;77;77;88;88;88;85;85;85;86;86;86;81;81;81;
0;0;0;0;90;77;77;88;88;88;85;85;85;86;86;86;81;81;81;
0;0;0;0;90;77;77;88;88;88;85;85;85;86;86;86;81;81;81;
0;0;0;0;90;77;77;88;88;88;85;85;85;86;86;86;81;81;81;
0;0;0;0;90;77;77;88;88;88;85;85;85;86;86;86;81;81;81;
0;0;0;0;90;77;77;88;88;88;85;85;85;86;86;86;81;81;81;
0;0;0;0;90;77;77;88;88;88;85;85;85;86;86;86;81;81;81;
0;0;0;0;90;77;77;88;88;88;85;85;85;86;86;86;81;81;81;
0;0;0;0;90;77;77;88;88;88;85;85;85;86;86;86;81;81;81;
0;0;0;0;90;77;77;88;88;88;85;85;85;86;86;86;81;81;81;
0;0;0;0;90;77;77;88;88;88;85;85;85;86;86;86;81;81;81;
0;0;0;0;90;77;77;88;88;88;85;85;85;86;86;86;81;81;81;
0;0;0;0;90;77;77;88;88;88;85;85;85;86;86;86;81;81;81;
0;0;0;0;90;77;77;88;88;88;85;85;85;86;86;86;81;81;81;
0;0;0;0;90;77;77;88;88;88;85;85;85;86;86;86;81;81;81;
0;0;0;0;90;77;77;88;88;88;85;85;85;86;86;86;81;81;81;
0;0;0;0;90;77;77;88;88;88;85;85;85;86;86;86;81;81;81;
0;0;0;0;90;77;77;88;88;88;85;85;85;86;86;86;81;81;81;
0;0;0;0;90;77;77;88;88;88;85;85;85;86;86;86;81;81;81;
0;0;0;0;90;77;77;88;88;88;85;85;85;86;86;86;81;81;81;
0;0;0;0;90;77;77;88;88;88;85;85;85;86;86;86;81;81;81;
0;0;0;0;90;77;77;88;88;88;85;85;85;86;86;86;81;81;81;
0;0;0;0;90;77;77;88;88;88;85;85;85;86;86;86;81;81;81;
0;0;0;0;90;77;77;88;88;88;85;85;85;86;86;86;81;81;81;
0;0;0;0;90;77;77;88;88;88;85;85;85;86;86;86;81;81;81;
0;0;0;0;90;77;77;88;88;88;85;85;85;86;86;86;81;81;81;
0;0;0;0;90;77;77;88;88;88;85;85;85;86;86;86;81;81;81;
0;0;0;0;90;77;77;88;88;88;85;85;85;86;86;86;81;81;81;
0;0;0;0;90;77;77;88;88;88;85;85;85;86;86;86;81;81;81;
0;0;0;0;90;77;77;88;88;88;85;85;85;86;86;86;81;81;81;
0;0;0;0;90;77;77;88;88;88;85;85;85;86;86;86;81;81;81;
0;0;0;0;90;77;77;88;88;88;85;85;85;86;86;86;81;81;81;
0;0;0;0;90;77;77;88;88;88;85;85;85;86;86;86;81;81;81;
0;0;0;0;90;77;77;88;88;88;85;85;85;86;86;86;81;81;81;
0;0;0;0;90;77;77;88;88;88;85;85;85;86;86;86;81;81;81;
0;0;0;0;90;77;77;88;88;88;85;85;85;86;86;86;81;81;81;
0;0;0;0;90;77;77;88;88;88;85;85;85;86;86;86;81;81;81;
0;0;0;0;90;77;77;88;88;88;85;85;85;86;86;86;81;81;81;
0;0;0;0;90;77;77;88;88;88;85;85;85;86;86;86;81;81;81;
0;0;0;0;90;77;77;88;88;88;85;85;85;86;86;86;81;81;81;
0;0;0;0;90;77;77;88;88;88;85;85;85;86;86;86;81;81;81;
0;0;0;0;90;77;77;88;88;88;85;85;85;86;86;86;81;81;81;
0;0;0;0;90;77;77;88;88;88;85;85;85;86;86;86;81;81;81;
0;0;0;0;90;77;77;88;88;88;85;85;85;86;86;86;81;81;81;
0;0;0;0;90;77;77;88;88;88;85;85;85;86;86;86;81;81;81;
0;0;0;0;90;77;77;88;88;88;85;85;85;86;86;86;81;81;81;
0;0;0;0;90;77;77;88;88;88;85;85;85;86;86;86;81;81;81;
0;0;0;0;90;77;77;88;88;88;85;85;85;86;86;86;81;81;81;
0;0;0;0;90;77;77;88;88;88;85;85;85;86;86;86;81;81;81;
0;0;0;0;90;77;77;88;88;88;85;85;85;86;86;86;81;81;81;
0;0;0;0;90;77;77;88;88;88;85;85;85;86;86;86;81;81;81;
0;0;0;0;90;77;77;88;88;88;85;85;85;86;86;86;81;81;81;
0;0;0;0;90;77;77;88;88;88;85;85;85;86;86;86;81;81;81;
0;0;0;0;90;77;77;88;88;88;85;85;85;86;86;86;81;81;81;
0;0;0;0;90;77;77;88;88;88;85;85;85;86;86;86;81;81;81;
0;0;0;0;90;77;77;88;88;88;85;85;85;86;86;86;81;81;81;
0;0;0;0;90;77;77;88;88;88;85;85;85;86;86;86;81;81;81;
0;0;0;0;90;77;77;88;88;88;85;85;85;86;86;86;81;81;81;
0;0;0;0;90;77;77;88;88;88;85;85;85;86;86;86;81;81;81;
0;0;0;0;90;77;77;88;88;88;85;85;85;86;86;86;81;81;81;
0;0;0;0;90;77;77;88;88;88;85;85;85;86;86;86;81;81;81;
0;0;0;0;90;77;77;88;88;88;85;85;85;86;86;86;81;81;81;
0;0;0;0;90;77;77;88;88;88;85;85;85;86;86;86;81;81;81;
0;0;0;0;90;77;77;88;88;88;85;85;85;86;86;86;81;81;81;
0;0;0;0;90;77;77;88;88;88;85;85;85;86;86;86;81;81;81;
0;0;0;0;90;77;77;88;88;88;85;85;85;86;86;86;81;81;81;
0;0;0;0;90;77;77;88;88;88;85;85;85;86;86;86;81;81;81;
0;0;0;0;90;77;77;88;88;88;85;85;85;86;86;86;81;81;81;
0;0;0;0;90;77;77;88;88;88;85;85;85;86;86;86;81;81;81;
0;0;0;0;90;77;77;88;88;88;85;85;85;86;86;86;81;81;81;
0;0;0;0;90;77;77;88;88;88;85;85;85;86;86;86;81;81;81;
0;0;0;0;90;77;77;88;88;88;85;85;85;86;86;86;81;81;81;
0;0;0;0;90;77;77;88;88;88;85;85;85;86;86;86;81;81;81;
0;0;0;0;90;77;77;88;88;88;85;85;85;86;86;86;81;81;81;
0;0;0;0;90;77;77;88;88;88;85;85;85;86;86;86;81;81;81;
0;0;0;0;90;77;77;88;88;88;85;85;85;86;86;86;81;81;81;
0;0;0;0;90;77;77;88;88;88;85;85;85;86;86;86;81;81;81;
0;0;0;0;90;77;77;88;88;88;85;85;85;86;86;86;81;81;81;
0;0;0;0;90;77;77;88;88;88;85;85;85;86;86;86;81;81;81;
0;0;0;0;90;77;77;88;88;88;85;85;85;86;86;86;81;81;81;
0;0;0;0;90;77;77;88;88;88;85;85;85;86;86;86;81;81;81;
0;0;0;0;90;77;77;88;88;88;85;85;85;86;86;86;81;81;81;
0;0;0;0;90;77;77;88;88;88;85;85;85;86;86;86;81;81;81;
0;0;0;0;90;77;77;88;88;88;85;85;85;86;86;86;81;81;81;
0;0;0;0;90;77;77;88;88;88;85;85;85;86;86;86;81;81;81;
0;0;0;0;90;77;77;88;88;88;85;85;85;86;86;86;81;81;81;
0;0;0;0;90;77;77;88;88;88;85;85;85;86;86;86;81;81;81;
0;0;0;0;90;77;77;88;88;88;85;85;85;86;86;86;81;81;81;
0;0;0;0;90;77;77;88;88;88;85;85;85;86;86;86;81;81;81;
0;0;0;0;90;77;77;88;88;88;85;85;85;86;86;86;81;81;81;
0;0;0;0;90;77;77;88;88;88;85;85;85;86;86;86;81;81;81;
0;0;0;0;90;77;77;88;88;88;85;85;85;86;86;86;81;81;81;
0;0;0;0;90;77;77;88;88;88;85;85;85;86;86;86;81;81;81;
0;0;0;0;90;77;77;88;88;88;85;85;85;86;86;86;81;81;81;
0;0;0;0;90;77;77;88;88;88;85;85;85;86;86;86;81;81;81;
0;0;0;0;90;77;77;88;88;88;85;85;85;86;86;86;81;81;81;
0;0;0;0;90;77;77;88;88;88;85;85;85;86;86;86;81;81;81;
0;0;0;0;90;77;77;88;88;88;85;85;85;86;86;86;81;81;81;
0;0;0;0;90;77;77;88;88;88;85;85;85;86;86;86;81;81;81;
0;0;0;0;90;77;77;88;88;88;85;85;85;86;86;86;81;81;81;
0;0;0;0;90;77;77;88;88;88;85;85;85;86;86;86;81;81;81;
0;0;0;0;90;77;77;88;88;88;85;85;85;86;86;86;81;81;81;
0;0;0;0;90;77;77;88;88;88;85;85;85;86;86;86;81;81;81;
0;0;0;0;90;77;77;88;88;88;85;85;85;86;86;86;81;81;81;
0;0;0;0;90;77;77;88;88;88;85;85;85;86;86;86;81;81;81;
0;0;0;0;89;77;77;88;88;88;85;85;85;86;86;86;81;81;81;
0;0;0;0;89;77;77;88;88;88;85;85;85;86;86;86;81;81;81;
0;0;0;0;89;77;77;88;88;88;85;85;85;86;86;86;81;81;81;
0;0;0;0;89;77;77;88;88;88;85;85;85;86;86;86;81;81;81;
0;0;0;0;89;77;77;88;88;88;85;85;85;86;86;86;81;81;81;
0;0;0;0;89;77;77;88;88;88;85;85;85;86;86;86;81;81;81;
0;0;0;0;89;77;77;88;88;88;85;85;85;86;86;86;81;81;81;
0;0;0;0;89;77;77;88;88;88;85;85;85;86;86;86;81;81;81;
0;0;0;0;89;77;77;88;88;88;85;85;85;86;86;86;81;81;81;
0;0;0;0;89;77;77;88;88;88;85;85;85;86;86;86;81;81;81;
0;0;0;0;89;77;77;88;88;88;85;85;85;86;86;86;81;81;81;
0;0;0;0;89;77;77;88;88;88;85;85;85;86;86;86;81;81;81;
0;0;0;0;89;77;77;88;88;88;85;85;85;86;86;86;81;81;81;
0;0;0;0;89;77;77;88;88;88;85;85;85;86;86;86;81;81;81;
0;0;0;0;89;77;77;88;88;88;85;85;85;86;86;86;81;81;81;
0;0;0;0;89;77;77;88;88;88;85;85;85;86;86;86;81;81;81;
0;0;0;0;89;77;77;88;88;88;85;85;85;86;86;86;81;81;81;
0;0;0;0;89;77;77;88;88;88;85;85;85;86;86;86;81;81;81;
0;0;0;0;89;77;77;88;88;88;85;85;85;86;86;86;81;81;81;
0;0;0;0;89;77;77;88;88;88;85;85;85;86;86;86;81;81;81;
0;0;0;0;89;77;77;88;88;88;85;85;85;86;86;86;81;81;81;
0;0;0;0;89;77;77;88;88;88;85;85;85;86;86;86;81;81;81;
0;0;0;0;89;77;77;88;88;88;85;85;85;86;86;86;81;81;81;
0;0;0;0;89;77;77;88;88;88;85;85;85;86;86;86;81;81;81;
0;0;0;0;89;77;77;88;88;88;85;85;85;86;86;86;81;81;81;
0;0;0;0;89;77;77;88;88;88;85;85;85;86;86;86;81;81;81;
0;0;0;0;89;77;77;88;88;88;85;85;85;86;86;86;81;81;81;
0;0;0;0;89;77;77;88;88;88;85;85;85;86;86;86;81;81;81;
0;0;0;0;89;77;77;88;88;88;85;85;85;86;86;86;81;81;81;
0;0;0;0;89;77;77;88;88;88;85;85;85;86;86;86;81;81;81;
0;0;0;0;89;77;77;88;88;88;85;85;85;86;86;86;81;81;81;
0;0;0;0;89;77;77;88;88;88;85;85;85;86;86;86;81;81;81;
0;0;0;0;89;77;77;88;88;88;85;85;85;86;86;86;81;81;81;
0;0;0;0;89;77;77;88;88;88;85;85;85;86;86;86;81;81;81;
0;0;0;0;89;77;77;88;88;88;85;85;85;86;86;86;81;81;81;
0;0;0;0;89;77;77;88;88;88;85;85;85;86;86;86;81;81;81;
0;0;0;0;89;77;77;88;88;88;85;85;85;86;86;86;81;81;81;
0;0;0;0;89;77;77;88;88;88;85;85;85;86;86;86;81;81;81;
0;0;0;0;89;77;77;88;88;88;85;85;85;86;86;86;81;81;81;
0;0;0;0;89;77;77;88;88;88;85;85;85;86;86;86;81;81;81;
0;0;0;0;89;77;77;88;88;88;85;85;85;86;86;86;81;81;81;
0;0;0;0;89;77;77;88;88;88;85;85;85;86;86;86;81;81;81;
0;0;0;0;89;77;77;88;88;88;85;85;85;86;86;86;81;81;81;
0;0;0;0;89;77;77;88;88;88;85;85;85;86;86;86;81;81;81;
0;0;0;0;89;77;77;88;88;88;85;85;85;86;86;86;81;81;81;
0;0;0;0;89;77;77;88;88;88;85;85;85;86;86;86;81;81;81;
0;0;0;0;89;77;77;88;88;88;85;85;85;86;86;86;81;81;81;
0;0;0;0;89;77;77;88;88;88;85;85;85;86;86;86;81;81;81;
0;0;0;0;89;77;77;88;88;88;85;85;85;86;86;86;81;81;81;
0;0;0;0;89;77;77;88;88;88;85;85;85;86;86;86;81;81;81;
0;0;0;0;89;77;77;88;88;88;85;85;85;86;86;86;81;81;81;
0;0;0;0;89;77;77;88;88;88;85;85;85;86;86;86;81;81;81;
0;0;0;0;89;77;77;88;88;88;85;85;85;86;86;86;81;81;81;
0;0;0;0;89;77;77;88;88;88;85;85;85;86;86;86;81;81;81;
0;0;0;0;89;77;77;88;88;88;85;85;85;86;86;86;81;81;81;
0;0;0;0;89;77;77;88;88;88;85;85;85;86;86;86;81;81;81;
0;0;0;0;89;77;77;88;88;88;85;85;85;86;86;86;81;81;81;
0;0;0;0;89;77;77;88;88;88;85;85;85;86;86;86;81;81;81;
0;0;0;0;89;77;77;88;88;88;85;85;85;86;86;86;81;81;81;
0;0;0;0;89;77;77;88;88;88;85;85;85;86;86;86;81;81;81;
0;0;0;0;89;77;77;88;88;88;85;85;85;86;86;86;81;81;81;
0;0;0;0;90;77;77;88;88;88;85;85;85;86;86;86;81;81;81;
0;0;0;0;90;77;77;88;88;88;85;85;85;86;86;86;81;81;81;
0;0;0;0;90;77;77;88;88;88;85;85;85;86;86;86;81;81;81;
0;0;0;0;90;77;77;88;88;88;85;85;85;86;86;86;81;81;81;
0;0;0;0;90;77;77;88;88;88;85;85;85;86;86;86;81;81;81;
0;0;0;0;90;77;77;88;88;88;85;85;85;86;86;86;81;81;81;
0;0;0;0;90;77;77;88;88;88;85;85;85;86;86;86;81;81;81;
0;0;0;0;90;77;77;88;88;88;85;85;85;86;86;86;81;81;81;
0;0;0;0;90;77;77;88;88;88;85;85;85;86;86;86;81;81;81;
0;0;0;0;90;77;77;88;88;88;85;85;85;86;86;86;81;81;81;
0;0;0;0;90;77;77;88;88;88;85;85;85;86;86;86;81;81;81;
0;0;0;0;90;77;77;88;88;88;85;85;85;86;86;86;81;81;81;
0;0;0;0;90;77;77;88;88;88;85;85;85;86;86;86;81;81;81;
0;0;0;0;90;77;77;88;88;88;85;85;85;86;86;86;81;81;81;
0;0;0;0;90;77;77;88;88;88;85;85;85;86;86;86;81;81;81;
0;0;0;0;90;77;77;88;88;88;85;85;85;86;86;86;81;81;81;
0;0;0;0;90;77;77;88;88;88;85;85;85;86;86;86;81;81;81;
0;0;0;0;90;77;77;88;88;88;85;85;85;86;86;86;81;81;81;
0;0;0;0;90;77;77;88;88;88;85;85;85;86;86;86;81;81;81;
0;0;0;0;90;77;77;88;88;88;85;85;85;86;86;86;81;81;81;
0;0;0;0;90;77;77;88;88;88;85;85;85;86;86;86;81;81;81;
0;0;0;0;90;77;77;88;88;88;85;85;85;86;86;86;81;81;81;
0;0;0;0;90;77;77;88;88;88;85;85;85;86;86;86;81;81;81;
0;0;0;0;90;77;77;88;88;88;85;85;85;86;86;86;81;81;81;
0;0;0;0;90;77;77;88;88;88;85;85;85;86;86;86;81;81;81;
0;0;0;0;90;77;77;88;88;88;85;85;85;86;86;86;81;81;81;
0;0;0;0;90;77;77;88;88;88;85;85;85;86;86;86;81;81;81;
0;0;0;0;90;77;77;88;88;88;85;85;85;86;86;86;81;81;81;
0;0;0;0;90;77;77;88;88;88;85;85;85;86;86;86;81;81;81;
0;0;0;0;90;77;77;88;88;88;85;85;85;86;86;86;81;81;81;
0;0;0;0;90;77;77;88;88;88;85;85;85;86;86;86;81;81;81;
0;0;0;0;90;77;77;88;88;88;85;85;85;86;86;86;81;81;81;
0;0;0;0;90;77;77;88;88;88;85;85;85;86;86;86;81;81;81;
0;0;0;0;90;77;77;88;88;88;85;85;85;86;86;86;81;81;81;
0;0;0;0;90;77;77;88;88;88;85;85;85;86;86;86;81;81;81;
0;0;0;0;90;77;77;88;88;88;85;85;85;86;86;86;81;81;81;
0;0;0;0;90;77;77;88;88;88;85;85;85;86;86;86;81;81;81;
0;0;0;0;90;77;77;88;88;88;85;85;85;86;86;86;81;81;81;
0;0;0;0;90;77;77;88;88;88;85;85;85;86;86;86;81;81;81;
0;0;0;0;90;77;77;88;88;88;85;85;85;86;86;86;81;81;81;
0;0;0;0;90;77;77;88;88;88;85;85;85;86;86;86;81;81;81;
0;0;0;0;90;77;77;88;88;88;85;85;85;86;86;86;81;81;81;
0;0;0;0;90;77;77;88;88;88;85;85;85;86;86;86;81;81;81;
0;0;0;0;90;77;77;88;88;88;85;85;85;86;86;86;81;81;81;
0;0;0;0;90;77;77;88;88;88;85;85;85;86;86;86;81;81;81;
0;0;0;0;90;77;77;88;88;88;85;85;85;86;86;86;81;81;81;
0;0;0;0;90;77;77;88;88;88;85;85;85;86;86;86;81;81;81;
0;0;0;0;90;77;77;88;88;88;85;85;85;86;86;86;81;81;81;
0;0;0;0;90;77;77;88;88;88;85;85;85;86;86;86;81;81;81;
0;0;0;0;90;77;77;88;88;88;85;85;85;86;86;86;81;81;81;
0;0;0;0;90;77;77;88;88;88;85;85;85;86;86;86;81;81;81;
0;0;0;0;90;77;77;88;88;88;85;85;85;86;86;86;81;81;81;
0;0;0;0;90;77;77;88;88;88;85;85;85;86;86;86;81;81;81;
0;0;0;0;90;77;77;88;88;88;85;85;85;86;86;86;81;81;81;
0;0;0;0;90;77;77;88;88;88;85;85;85;86;86;86;81;81;81;
0;0;0;0;90;77;77;88;88;88;85;85;85;86;86;86;81;81;81;
0;0;0;0;90;77;77;88;88;88;85;85;85;86;86;86;81;81;81;
0;0;0;0;90;77;77;88;88;88;85;85;85;86;86;86;81;81;81;
0;0;0;0;90;77;77;88;88;88;85;85;85;86;86;86;81;81;81;
0;0;0;0;90;77;77;88;88;88;85;85;85;86;86;86;81;81;81;
0;0;0;0;90;77;77;88;88;88;85;85;85;86;86;86;81;81;81;
0;0;0;0;90;77;77;88;88;88;85;85;85;86;86;86;81;81;81;
0;0;0;0;90;77;77;88;88;88;85;85;85;86;86;86;81;81;81;
0;0;0;0;90;77;77;88;88;88;85;85;85;86;86;86;81;81;81;
0;0;0;0;90;77;77;88;88;88;85;85;85;86;86;86;81;81;81;
0;0;0;0;90;77;77;88;88;88;85;85;85;86;86;86;81;81;81;
0;0;0;0;90;77;77;88;88;88;85;85;85;86;86;86;81;81;81;
0;0;0;0;90;77;77;88;88;88;85;85;85;86;86;86;81;81;81;
0;0;0;0;90;77;77;88;88;88;85;85;85;86;86;86;81;81;81;
0;0;0;0;90;77;77;88;88;88;85;85;85;86;86;86;81;81;81;
0;0;0;0;90;78;78;88;88;88;85;85;85;86;86;86;81;81;81;
0;0;0;0;90;78;78;88;88;88;85;85;85;86;86;86;81;81;81;
0;0;0;0;90;78;78;88;88;88;85;85;85;86;86;86;81;81;81;
0;0;0;0;90;78;78;88;88;88;85;85;85;86;86;86;81;81;81;
0;0;0;0;90;78;78;88;88;88;85;85;85;86;86;86;81;81;81;
0;0;0;0;90;78;78;88;88;88;85;85;85;86;86;86;81;81;81;
0;0;0;0;90;78;78;88;88;88;85;85;85;86;86;86;81;81;81;
0;0;0;0;90;78;78;88;88;88;85;85;85;86;86;86;81;81;81;
0;0;0;0;90;78;78;88;88;88;85;85;85;86;86;86;81;81;81;
0;0;0;0;90;78;78;88;88;88;85;85;85;86;86;86;81;81;81;
0;0;0;0;90;78;78;88;88;88;85;85;85;86;86;86;81;81;81;
0;0;0;0;90;78;78;88;88;88;85;85;85;86;86;86;81;81;81;
0;0;0;0;90;78;78;88;88;88;85;85;85;86;86;86;81;81;81;
0;0;0;0;90;78;78;88;88;88;85;85;85;86;86;86;81;81;81;
0;0;0;0;90;78;78;88;88;88;85;85;85;86;86;86;81;81;81;
0;0;0;0;90;78;78;88;88;88;85;85;85;86;86;86;81;81;81;
0;0;0;0;90;78;78;88;88;88;85;85;85;86;86;86;81;81;81;
0;0;0;0;90;78;78;88;88;88;85;85;85;86;86;86;81;81;81;
0;0;0;0;90;78;78;88;88;88;85;85;85;86;86;86;81;81;81;
0;0;0;0;90;78;78;88;88;88;85;85;85;86;86;86;81;81;81;
0;0;0;0;90;78;78;88;88;88;85;85;85;86;86;86;81;81;81;
0;0;0;0;90;78;78;88;88;88;85;85;85;86;86;86;81;81;81;
0;0;0;0;90;78;78;88;88;88;85;85;85;86;86;86;81;81;81;
0;0;0;0;90;78;78;88;88;88;85;85;85;86;86;86;81;81;81;
0;0;0;0;90;78;78;88;88;88;85;85;85;86;86;86;81;81;81;
0;0;0;0;90;78;78;88;88;88;85;85;85;86;86;86;81;81;81;
0;0;0;0;90;78;78;88;88;88;85;85;85;86;86;86;81;81;81;
0;0;0;0;90;78;78;88;88;88;85;85;85;86;86;86;81;81;81;
0;0;0;0;90;78;78;88;88;88;85;85;85;86;86;86;81;81;81;
0;0;0;0;90;78;78;88;88;88;85;85;85;86;86;86;81;81;81;
0;0;0;0;90;78;78;88;88;88;85;85;85;86;86;86;81;81;81;
0;0;0;0;90;78;78;88;88;88;85;85;85;86;86;86;81;81;81;
0;0;0;0;90;78;78;88;88;88;85;85;85;86;86;86;81;81;81;
0;0;0;0;90;78;78;88;88;88;85;85;85;86;86;86;81;81;81;
0;0;0;0;90;78;78;88;88;88;85;85;85;86;86;86;81;81;81;
0;0;0;0;90;78;78;88;88;88;85;85;85;86;86;86;81;81;81;
0;0;0;0;90;78;78;88;88;88;85;85;85;86;86;86;81;81;81;
0;0;0;0;90;78;78;88;88;88;85;85;85;86;86;86;81;81;81;
0;0;0;0;90;78;78;88;88;88;85;85;85;86;86;86;81;81;81;
0;0;0;0;90;78;78;88;88;88;85;85;85;86;86;86;81;81;81;
0;0;0;0;90;78;78;88;88;88;85;85;85;86;86;86;81;81;81;
0;0;0;0;90;78;78;88;88;88;85;85;85;86;86;86;81;81;81;
0;0;0;0;90;78;78;88;88;88;85;85;85;86;86;86;81;81;81;
0;0;0;0;90;78;78;88;88;88;85;85;85;86;86;86;81;81;81;
0;0;0;0;90;78;78;88;88;88;85;85;85;86;86;86;81;81;81;
0;0;0;0;90;78;78;88;88;88;85;85;85;86;86;86;81;81;81;
0;0;0;0;90;78;78;88;88;88;85;85;85;86;86;86;81;81;81;
0;0;0;0;90;78;78;88;88;88;85;85;85;86;86;86;81;81;81;
0;0;0;0;90;78;78;88;88;88;85;85;85;86;86;86;81;81;81;
0;0;0;0;90;78;78;88;88;88;85;85;85;86;86;86;81;81;81;
0;0;0;0;90;78;78;88;88;88;85;85;85;86;86;86;81;81;81;
0;0;0;0;90;78;78;88;88;88;85;85;85;86;86;86;81;81;81;
0;0;0;0;90;78;78;88;88;88;85;85;85;86;86;86;81;81;81;
0;0;0;0;90;78;78;88;88;88;85;85;85;86;86;86;81;81;81;
0;0;0;0;90;78;78;88;88;88;85;85;85;86;86;86;81;81;81;
0;0;0;0;90;78;78;88;88;88;85;85;85;86;86;86;81;81;81;
0;0;0;0;90;78;78;88;88;88;85;85;85;86;86;86;81;81;81;
0;0;0;0;90;78;78;88;88;88;85;85;85;86;86;86;81;81;81;
0;0;0;0;90;78;78;88;88;88;85;85;85;86;86;86;81;81;81;
0;0;0;0;90;78;78;88;88;88;85;85;85;86;86;86;81;81;81;
0;0;0;0;90;78;78;88;88;88;85;85;85;86;86;86;81;81;81;
0;0;0;0;90;78;78;88;88;88;85;85;85;86;86;86;81;81;81;
0;0;0;0;90;78;78;88;88;88;85;85;85;86;86;86;81;81;81;
0;0;0;0;90;78;78;88;88;88;85;85;85;86;86;86;81;81;81;
0;0;0;0;90;78;78;88;88;88;85;85;85;86;86;86;81;81;81;
0;0;0;0;90;78;78;88;88;88;85;85;85;86;86;86;81;81;81;
0;0;0;0;90;78;78;88;88;88;85;85;85;86;86;86;81;81;81;
0;0;0;0;90;78;78;88;88;88;85;85;85;86;86;86;81;81;81;
0;0;0;0;90;78;78;88;88;88;85;85;85;86;86;86;81;81;81;
0;0;0;0;90;78;78;88;88;88;85;85;85;86;86;86;81;81;81;
0;0;0;0;90;78;78;88;88;88;85;85;85;86;86;86;81;81;81;
0;0;0;0;90;78;78;88;88;88;85;85;85;86;86;86;81;81;81;
0;0;0;0;90;78;78;88;88;88;85;85;85;86;86;86;81;81;81;
0;0;0;0;90;78;78;88;88;88;85;85;85;86;86;86;81;81;81;
0;0;0;0;90;78;78;88;88;88;84;85;85;86;86;86;81;81;81;
0;0;0;0;90;78;78;88;88;88;84;85;85;86;86;86;81;81;81;
0;0;0;0;90;78;78;88;88;88;84;85;85;86;86;86;81;81;81;
0;0;0;0;90;78;78;88;88;88;84;85;85;86;86;86;81;81;81;
0;0;0;0;90;78;78;88;88;88;84;85;85;86;86;86;81;81;81;
0;0;0;0;90;78;78;88;88;88;84;85;85;86;86;86;81;81;81;
0;0;0;0;90;78;78;88;88;88;84;85;85;86;86;86;81;81;81;
0;0;0;0;90;78;78;88;88;88;84;85;85;86;86;86;81;81;81;
0;0;0;0;90;78;78;88;88;88;84;85;85;86;86;86;81;81;81;
0;0;0;0;90;78;78;88;88;88;84;85;85;86;86;86;81;81;81;
0;0;0;0;90;78;78;88;88;88;84;85;85;86;86;86;81;81;81;
0;0;0;0;90;78;78;88;88;88;84;85;85;86;86;86;81;81;81;
0;0;0;0;90;78;78;88;88;88;84;85;85;86;86;86;81;81;81;
0;0;0;0;90;78;78;88;88;88;84;85;85;86;86;86;81;81;81;
0;0;0;0;90;78;78;88;88;88;84;85;85;86;86;86;81;81;81;
0;0;0;0;90;78;78;88;88;88;84;85;85;86;86;86;81;81;81;
0;0;0;0;90;78;78;88;88;88;84;85;85;86;86;86;81;81;81;
0;0;0;0;90;78;78;88;88;88;84;85;85;86;86;86;81;81;81;
0;0;0;0;90;78;78;88;88;88;84;85;85;86;86;86;81;81;81;
0;0;0;0;90;78;78;88;88;88;84;85;85;86;86;86;81;81;81;
0;0;0;0;90;78;78;88;88;88;84;85;85;86;86;86;81;81;81;
0;0;0;0;90;78;78;88;88;88;84;85;85;86;86;86;81;81;81;
0;0;0;0;90;78;78;88;88;88;84;85;85;86;86;86;81;81;81;
0;0;0;0;90;78;78;88;88;88;84;85;85;86;86;86;81;81;81;
0;0;0;0;90;78;78;88;88;88;84;85;85;86;86;86;81;81;81;
0;0;0;0;90;78;78;88;88;88;84;85;85;86;86;86;81;81;81;
0;0;0;0;90;78;78;88;88;88;84;85;85;86;86;86;81;81;81;
0;0;0;0;90;78;78;88;88;88;84;85;85;86;86;86;81;81;81;
0;0;0;0;90;78;78;88;88;88;84;85;85;86;86;86;81;81;81;
0;0;0;0;90;78;78;88;88;88;84;85;85;86;86;86;81;81;81;
0;0;0;0;90;78;78;88;88;88;84;85;85;86;86;86;81;81;81;
0;0;0;0;90;78;78;88;88;88;84;85;85;86;86;86;81;81;81;
0;0;0;0;90;78;78;88;88;88;84;85;85;86;86;86;81;81;81;
0;0;0;0;90;78;78;88;88;88;84;85;85;86;86;86;81;81;81;
0;0;0;0;90;78;78;88;88;88;84;85;85;86;86;86;81;81;81;
0;0;0;0;90;78;78;88;88;88;84;85;85;86;86;86;81;81;81;
0;0;0;0;90;78;78;88;88;88;84;85;85;86;86;86;81;81;81;
0;0;0;0;90;78;78;88;88;88;84;85;85;86;86;86;81;81;81;
0;0;0;0;90;78;78;88;88;88;84;85;85;86;86;86;81;81;81;
0;0;0;0;90;78;78;88;88;88;84;85;85;86;86;86;81;81;81;
0;0;0;0;90;78;78;88;88;88;84;85;85;86;86;86;81;81;81;
0;0;0;0;90;78;78;88;88;88;84;85;85;86;86;86;81;81;81;
0;0;0;0;90;78;78;88;88;88;84;85;85;86;86;86;81;81;81;
0;0;0;0;90;78;78;88;88;88;84;85;85;86;86;86;81;81;81;
0;0;0;0;90;78;78;88;88;88;84;85;85;86;86;86;81;81;81;
0;0;0;0;90;78;78;88;88;88;85;85;85;86;86;86;81;81;81;
0;0;0;0;90;78;78;88;88;88;85;85;85;86;86;86;81;81;81;
0;0;0;0;90;78;78;88;88;88;85;85;85;86;86;86;81;81;81;
0;0;0;0;90;78;78;88;88;88;85;85;85;86;86;86;81;81;81;
0;0;0;0;90;78;78;88;88;88;85;85;85;86;86;86;81;81;81;
0;0;0;0;90;78;78;88;88;88;85;85;85;86;86;86;81;81;81;
0;0;0;0;90;78;78;88;88;88;85;85;85;86;86;86;81;81;81;
0;0;0;0;90;78;78;88;88;88;85;85;85;86;86;86;81;81;81;
0;0;0;0;90;78;78;88;88;88;85;85;85;86;86;86;81;81;81;
0;0;0;0;90;78;78;88;88;88;85;85;85;86;86;86;81;81;81;
0;0;0;0;90;78;78;88;88;88;85;85;85;86;86;86;81;81;81;
0;0;0;0;90;78;78;88;88;88;85;85;85;86;86;86;81;81;81;
0;0;0;0;90;78;78;88;88;88;85;85;85;86;86;86;81;81;81;
0;0;0;0;90;78;78;88;88;88;85;85;85;86;86;86;81;81;81;
0;0;0;0;90;78;78;88;88;88;85;85;85;86;86;86;81;81;81;
0;0;0;0;90;78;78;88;88;88;85;85;85;86;86;86;81;81;81;
0;0;0;0;90;78;78;88;88;88;85;85;85;86;86;86;81;81;81;
0;0;0;0;90;78;78;88;88;88;85;85;85;86;86;86;81;81;81;
0;0;0;0;90;78;78;88;88;88;85;85;85;86;86;86;81;81;81;
0;0;0;0;90;78;78;88;88;88;85;85;85;86;86;86;81;81;81;
0;0;0;0;90;78;78;88;88;88;85;85;85;86;86;86;81;81;81;
0;0;0;0;90;78;78;88;88;88;85;85;85;86;86;86;81;81;81;
0;0;0;0;90;78;78;88;88;88;85;85;85;86;86;86;81;81;81;
0;0;0;0;90;78;78;88;88;88;85;85;85;86;86;86;81;81;81;
0;0;0;0;90;78;78;88;88;88;85;85;85;86;86;86;81;81;81;
0;0;0;0;90;78;78;88;88;88;85;85;85;86;86;86;81;81;81;
0;0;0;0;90;78;78;88;88;88;85;85;85;86;86;86;81;81;81;
0;0;0;0;90;78;78;88;88;88;85;85;85;86;86;86;81;81;81;
0;0;0;0;90;78;78;88;88;88;85;85;85;86;86;86;81;81;81;
0;0;0;0;90;78;78;88;88;88;85;85;85;86;86;86;81;81;81;
0;0;0;0;90;78;78;88;88;88;84;84;84;86;85;85;81;80;80;
0;0;0;0;90;78;78;88;88;88;84;84;84;86;85;85;81;80;80;
0;0;0;0;90;78;78;88;88;88;84;84;84;86;85;85;81;80;80;
0;0;0;0;90;78;78;88;88;88;84;84;84;86;85;85;81;80;80;
0;0;0;0;90;78;78;88;88;88;84;84;84;86;85;85;81;80;80;
0;0;0;0;90;78;78;88;88;88;84;84;84;86;85;85;81;80;80;
0;0;0;0;90;78;78;88;88;88;84;84;84;86;85;85;81;80;80;
0;0;0;0;90;78;78;88;88;88;84;84;84;86;85;85;81;80;80;
0;0;0;0;90;78;78;88;88;88;84;84;84;86;85;85;81;80;80;
0;0;0;0;91;78;78;87;88;88;84;84;84;86;85;85;81;80;80;
0;0;0;0;91;78;78;88;88;88;84;84;84;86;85;85;81;80;80;
0;0;0;0;91;78;78;88;88;88;84;85;85;86;85;85;81;80;80;
0;0;0;0;91;78;78;88;88;88;84;85;85;86;85;85;81;80;80;
0;0;0;0;91;78;78;88;88;88;84;85;85;86;85;85;81;80;80;
0;0;0;0;91;78;78;88;88;88;84;85;85;86;85;85;81;80;80;
0;0;0;0;91;78;78;88;88;88;84;85;85;86;85;85;81;80;80;
0;0;0;0;92;78;78;88;88;88;84;85;85;86;85;85;81;80;80;
0;0;0;0;92;78;78;88;88;88;84;85;85;86;85;85;81;80;80;
0;0;0;0;92;78;78;88;88;88;84;85;85;86;85;85;81;80;80;
0;0;0;0;92;78;78;88;88;88;84;85;85;86;85;85;81;80;80;
0;0;0;0;92;78;78;88;88;88;84;85;85;86;85;85;81;80;80;
0;0;0;0;92;78;78;88;88;88;85;85;85;86;86;86;80;80;80;
0;0;0;0;92;78;78;88;88;88;85;85;85;86;86;86;80;80;80;
0;0;0;0;92;78;78;88;88;88;85;85;85;86;86;86;80;80;80;
0;0;0;0;92;78;78;88;88;88;85;85;85;86;86;86;80;80;80;
0;0;0;0;92;78;78;88;88;88;85;85;85;86;86;86;80;80;80;
0;0;0;0;92;78;78;88;88;88;85;85;85;86;86;86;80;80;80;
0;0;0;0;92;78;78;88;88;88;85;85;85;86;86;86;80;80;80;
0;0;0;0;92;78;78;88;88;88;85;85;85;86;86;86;80;80;80;
0;0;0;0;92;78;78;88;88;88;85;85;85;86;86;86;80;80;80;
0;0;0;0;92;78;78;88;88;88;85;85;85;86;86;86;80;80;80;
0;0;0;0;92;78;78;88;88;88;85;85;85;86;86;86;80;80;80;
0;0;0;0;92;78;78;88;88;88;85;85;85;86;86;86;80;80;80;
0;0;0;0;92;78;78;88;88;88;85;85;85;86;86;86;80;80;80;
0;0;0;0;92;78;78;88;88;88;85;85;85;86;86;86;80;80;80;
0;0;0;0;92;78;78;88;88;88;85;85;85;86;86;86;80;80;80;
0;0;0;0;92;78;78;88;88;88;85;85;85;86;86;86;80;80;80;
0;0;0;0;92;78;78;88;88;88;85;85;85;86;86;86;80;80;80;
0;0;0;0;92;78;78;88;88;88;85;85;85;86;86;86;80;80;80;
0;0;0;0;92;78;78;88;88;88;85;85;85;86;86;86;80;80;80;
0;0;0;0;92;78;78;88;88;88;85;85;85;86;86;86;80;80;80;
0;0;0;0;92;78;78;88;88;88;85;85;85;86;86;86;80;80;80;
0;0;0;0;92;78;78;88;88;88;85;85;85;86;86;86;80;80;80;
0;0;0;0;92;78;78;88;88;88;85;85;85;86;86;86;80;80;80;
0;0;0;0;92;78;78;88;88;88;85;85;85;86;86;86;80;80;80;
0;0;0;0;92;78;78;88;88;88;85;85;85;86;86;86;80;80;80;
0;0;0;0;92;78;78;88;88;88;85;85;85;86;86;86;80;80;80;
0;0;0;0;92;78;78;88;88;88;85;85;85;86;86;86;80;80;80;
0;0;0;0;92;78;78;88;88;88;85;85;85;86;86;86;80;80;80;
0;0;0;0;92;78;78;88;88;88;85;85;85;86;86;86;80;80;80;
0;0;0;0;92;78;78;88;88;88;85;85;85;86;86;86;80;80;80;
0;0;0;0;92;78;78;88;88;88;85;85;85;86;86;86;80;80;80;
0;0;0;0;92;78;78;88;88;88;85;85;85;86;86;86;80;80;80;
0;0;0;0;92;78;78;88;88;88;85;85;85;86;86;86;80;80;80;
0;0;0;0;92;78;78;88;88;88;85;85;85;86;86;86;80;80;80;
0;0;0;0;92;78;78;88;88;88;85;85;85;86;86;86;80;80;80;
0;0;0;0;92;78;78;88;88;88;85;85;85;86;86;86;80;80;80;
0;0;0;0;92;78;78;88;88;88;85;85;85;86;86;86;80;80;80;
0;0;0;0;92;78;78;88;88;88;85;85;85;86;86;86;80;80;80;
0;0;0;0;92;78;78;88;88;88;85;85;85;86;86;86;80;80;80;
0;0;0;0;92;78;78;88;88;88;85;85;85;86;86;86;80;80;80;
0;0;0;0;92;78;78;88;88;88;85;85;85;86;86;86;80;80;80;
0;0;0;0;92;78;78;88;88;88;85;85;85;86;86;86;80;80;80;
0;0;0;0;92;78;78;88;88;88;85;85;85;86;86;86;80;80;80;
0;0;0;0;92;78;78;88;88;88;85;85;85;86;86;86;80;80;80;
0;0;0;0;92;78;78;88;88;88;85;85;85;86;86;86;80;80;80;
0;0;0;0;92;78;78;88;88;88;85;85;85;86;86;86;80;80;80;
0;0;0;0;92;78;78;88;88;88;85;85;85;86;86;86;80;80;80;
0;0;0;0;92;78;78;88;88;88;85;85;85;86;86;86;80;80;80;
0;0;0;0;92;78;78;88;88;88;85;85;85;86;86;86;80;80;80;
0;0;0;0;92;78;78;88;88;88;85;85;85;86;86;86;80;80;80;
0;0;0;0;92;78;78;88;88;88;85;85;85;86;86;86;80;80;80;
0;0;0;0;92;78;78;88;88;88;85;85;85;86;86;86;80;80;80;
0;0;0;0;92;78;78;88;88;88;85;85;85;86;86;86;80;80;80;
0;0;0;0;92;78;78;88;88;88;85;85;85;86;86;86;80;80;80;
0;0;0;0;92;78;78;88;88;88;85;85;85;86;86;86;80;80;80;
0;0;0;0;92;78;78;88;88;88;85;85;85;86;86;86;80;80;80;
0;0;0;0;92;78;78;88;88;88;85;85;85;86;86;86;80;80;80;
0;0;0;0;92;78;78;88;88;88;85;85;85;86;86;86;80;80;80;
0;0;0;0;92;78;78;88;88;88;85;85;85;86;86;86;80;80;80;
0;0;0;0;92;78;78;88;88;88;85;85;85;86;86;86;80;80;80;
0;0;0;0;92;78;78;88;88;88;85;85;85;86;86;86;80;80;80;
0;0;0;0;92;78;78;88;88;88;85;85;85;86;86;86;80;80;80;
0;0;0;0;92;78;78;88;88;88;85;85;85;86;86;86;80;80;80;
0;0;0;0;92;78;78;88;88;88;85;85;85;86;86;86;80;80;80;
0;0;0;0;92;78;78;88;88;88;85;85;85;86;86;86;80;80;80;
0;0;0;0;92;78;78;88;88;88;85;85;85;86;86;86;80;80;80;
0;0;0;0;92;78;78;88;88;88;85;85;85;86;86;86;80;80;80;
0;0;0;0;92;78;78;88;88;88;85;85;85;86;86;86;80;80;80;
0;0;0;0;92;78;78;88;88;88;85;85;85;86;86;86;80;80;80;
0;0;0;0;92;78;78;88;88;88;85;85;85;86;86;86;80;80;80;
0;0;0;0;92;78;78;88;88;88;85;85;85;86;86;86;80;80;80;
0;0;0;0;92;78;78;88;88;88;85;85;85;86;86;86;80;80;80;
0;0;0;0;92;78;78;88;88;88;85;85;85;86;86;86;80;80;80;
0;0;0;0;92;78;78;88;88;88;85;85;85;86;86;86;80;80;80;
0;0;0;0;92;78;78;88;88;88;85;85;85;86;86;86;80;80;80;
0;0;0;0;92;78;78;88;88;88;85;85;85;86;86;86;80;80;80;
0;0;0;0;91;78;78;88;88;88;85;85;85;85;85;85;80;80;80;
0;0;0;0;91;78;78;88;88;88;85;85;85;85;85;85;80;80;80;
0;0;0;0;91;78;78;88;88;88;85;85;85;85;85;85;80;80;80;
0;0;0;0;91;78;78;88;88;88;85;85;85;85;85;85;80;80;80;
0;0;0;0;91;78;78;88;88;88;85;85;85;85;85;85;80;80;80;
0;0;0;0;91;78;78;88;88;88;85;85;85;85;85;85;80;80;80;
0;0;0;0;91;78;78;88;88;88;85;85;85;85;85;85;80;80;80;
0;0;0;0;91;78;78;88;88;88;85;85;85;85;85;85;80;80;80;
0;0;0;0;91;78;78;88;88;88;85;85;85;85;85;85;80;80;80;
0;0;0;0;91;78;78;88;88;88;85;85;85;85;85;85;80;80;80;
0;0;0;0;91;78;78;88;88;88;85;85;85;85;85;85;80;80;80;
0;0;0;0;91;78;78;88;88;88;85;85;85;85;85;85;80;80;80;
0;0;0;0;91;78;78;88;88;88;85;85;85;85;85;85;80;80;80;
0;0;0;0;91;78;78;88;88;88;85;85;85;85;85;85;80;80;80;
0;0;0;0;91;78;78;88;88;88;85;85;85;85;85;85;80;80;80;
0;0;0;0;91;78;78;88;88;88;85;85;85;85;85;85;80;80;80;
0;0;0;0;91;78;78;88;88;88;85;85;85;85;85;85;80;80;80;
0;0;0;0;91;78;78;88;88;88;85;85;85;85;85;85;80;80;80;
0;0;0;0;91;78;78;88;88;88;85;85;85;85;85;85;80;80;80;
0;0;0;0;91;78;78;88;88;88;85;85;85;85;85;85;80;80;80;
0;0;0;0;91;78;78;88;88;88;85;85;85;85;85;85;80;80;80;
0;0;0;0;91;78;78;88;88;88;85;84;84;85;85;85;80;79;79;
0;0;0;0;91;78;78;88;88;88;85;84;84;85;85;85;80;79;79;
0;0;0;0;91;78;78;88;88;88;85;84;84;85;85;85;80;79;79;
0;0;0;0;91;78;78;88;88;88;85;84;84;85;85;85;80;79;79;
0;0;0;0;92;78;78;88;88;88;84;84;84;85;85;85;79;79;79;
0;0;0;0;92;78;78;88;88;88;84;84;84;85;85;85;79;79;79;
0;0;0;0;92;78;78;88;88;88;84;84;84;85;85;85;79;79;79;
0;0;0;0;92;78;78;88;88;88;84;84;84;85;85;85;79;79;79;
0;0;0;0;92;78;78;88;88;88;84;84;84;85;85;85;79;79;79;
0;0;0;0;92;78;78;88;88;88;84;84;84;85;85;85;79;79;79;
0;0;0;0;92;78;78;88;88;88;84;84;84;85;85;85;79;79;79;
0;0;0;0;92;78;78;88;88;88;84;84;84;85;85;85;79;79;79;
0;0;0;0;92;78;78;88;88;88;84;84;84;85;85;85;79;79;79;
0;0;0;0;92;78;78;88;88;88;84;84;84;85;85;85;79;79;79;
0;0;0;0;92;78;78;88;88;88;84;84;84;85;85;85;79;79;79;
0;0;0;0;92;78;78;88;88;88;84;84;84;85;85;85;79;79;79;
0;0;0;0;92;78;78;88;88;88;84;84;84;85;85;85;79;79;79;
0;0;0;0;92;78;78;88;88;88;84;84;84;85;85;85;79;79;79;
0;0;0;0;92;78;78;88;88;88;84;84;84;85;85;85;79;79;79;
0;0;0;0;92;78;78;88;88;88;84;84;84;85;85;85;79;79;79;
0;0;0;0;92;78;78;88;88;88;84;84;84;85;85;85;79;79;79;
0;0;0;0;92;78;78;88;88;88;84;84;84;85;85;85;79;79;79;
0;0;0;0;92;78;78;88;88;88;84;84;84;85;85;85;79;79;79;
0;0;0;0;92;78;78;88;88;88;84;84;84;85;85;85;79;79;79;
0;0;0;0;92;78;78;88;88;88;84;84;84;85;85;85;79;79;79;
0;0;0;0;92;78;78;88;88;88;84;84;84;85;85;85;79;79;79;
0;0;0;0;92;78;78;88;88;88;84;84;84;85;85;85;79;79;79;
0;0;0;0;92;78;78;88;88;88;84;84;84;85;85;85;79;79;79;
0;0;0;0;92;78;78;88;88;88;84;84;84;85;85;85;79;79;79;
0;0;0;0;92;78;78;88;88;88;84;84;84;85;85;85;79;79;79;
0;0;0;0;92;78;78;88;88;88;84;84;84;85;85;85;79;79;79;
0;0;0;0;92;78;78;88;88;88;84;84;84;85;85;85;79;79;79;
0;0;0;0;92;78;78;88;88;88;84;84;84;85;85;85;79;79;79;
0;0;0;0;92;78;78;88;88;88;84;84;84;85;85;85;79;79;79;
0;0;0;0;92;78;78;88;88;88;84;84;84;85;85;85;79;79;79;
0;0;0;0;92;78;78;88;88;88;84;84;84;85;85;85;79;79;79;
0;0;0;0;93;79;79;88;88;88;83;83;83;84;84;84;79;78;78;
0;0;0;0;93;79;79;88;88;88;83;83;83;84;84;84;79;78;78;
0;0;0;0;93;79;79;88;88;88;83;83;83;84;84;84;79;78;78;
0;0;0;0;93;79;79;88;88;88;83;83;83;84;84;84;79;78;78;
0;0;0;0;93;79;79;88;88;88;83;83;83;84;84;84;79;78;78;
0;0;0;0;93;79;79;88;88;88;83;83;83;84;84;84;79;78;78;
0;0;0;0;93;79;79;88;88;88;83;83;83;84;84;84;79;78;78;
0;0;0;0;93;79;79;88;88;88;83;83;83;84;84;84;79;78;78;
0;0;0;0;93;79;79;88;88;88;83;83;83;84;84;84;79;78;78;
0;0;0;0;93;79;79;88;88;88;83;83;83;84;84;84;79;78;78;
0;0;0;0;93;79;79;88;88;88;83;83;83;84;84;84;79;78;78;
0;0;0;0;93;79;79;88;88;88;83;83;83;84;84;84;79;78;78;
0;0;0;0;93;79;79;88;88;88;83;83;83;84;84;84;79;78;78;
0;0;0;0;93;79;79;88;88;88;83;83;83;84;84;84;79;78;78;
0;0;0;0;93;79;79;88;88;88;83;83;83;84;84;84;79;78;78;
0;0;0;0;93;79;79;88;88;88;83;83;83;84;84;84;79;78;78;
0;0;0;0;93;79;79;88;88;88;83;83;83;84;84;84;79;78;78;
0;0;0;0;93;79;79;88;88;88;83;83;83;84;84;84;79;78;78;
0;0;0;0;93;79;79;88;88;88;83;83;83;84;84;84;79;78;78;
0;0;0;0;93;79;79;88;88;88;83;83;83;84;84;84;79;78;78;
0;0;0;0;93;79;79;88;88;88;83;83;83;84;84;84;79;78;78;
0;0;0;0;93;79;79;88;88;88;83;83;83;84;84;84;79;78;78;
0;0;0;2;93;79;79;88;88;88;83;83;83;84;84;84;79;78;78;
0;0;0;0;93;79;79;88;88;88;83;83;83;84;84;84;79;78;78;
0;0;0;0;93;79;79;88;88;88;83;83;83;84;84;84;79;78;78;
0;0;0;0;93;79;79;88;88;88;83;83;83;84;84;84;79;78;78;
0;0;0;0;93;79;79;88;88;88;83;83;83;84;84;84;79;78;78;
0;0;0;0;93;79;79;88;88;88;83;83;83;84;84;84;79;78;78;
0;0;0;0;93;79;79;88;88;88;83;83;83;84;84;84;79;78;78;
0;0;0;0;93;79;79;88;88;88;83;83;83;84;84;84;79;78;78;
0;0;0;0;93;79;79;88;88;88;83;83;83;84;84;84;79;78;78;
0;0;0;0;93;79;79;88;88;88;83;83;83;84;84;84;79;78;78;
0;0;0;0;93;79;79;88;88;88;83;83;83;84;84;84;79;78;78;
0;0;0;0;93;79;79;88;88;88;83;83;83;84;84;84;79;78;78;
0;0;0;0;93;79;79;88;88;88;83;83;83;84;84;84;79;78;78;
0;0;0;0;93;79;79;88;88;88;83;83;83;84;84;84;79;78;78;
0;0;0;0;93;79;79;88;88;88;83;83;83;84;84;84;79;78;78;
0;0;0;0;93;79;79;88;88;88;83;83;83;84;84;84;79;78;78;
0;0;0;0;93;79;79;88;88;88;83;83;83;84;84;84;79;78;78;
0;0;0;0;93;79;79;88;88;88;83;83;83;84;84;84;79;78;78;
0;0;0;0;93;79;79;88;88;88;83;83;83;84;84;84;79;78;78;
0;0;0;0;93;79;79;88;88;88;83;83;83;84;84;84;79;78;78;
0;0;0;0;93;79;79;88;88;88;83;83;83;84;84;84;79;78;78;
0;0;0;0;93;79;79;88;88;88;83;83;83;84;84;84;79;78;78;
0;0;0;0;93;79;79;87;87;87;83;82;82;84;83;83;78;77;77;
0;0;0;0;93;79;79;87;87;87;83;82;82;84;83;83;78;77;77;
0;0;0;0;93;79;79;87;87;87;83;82;82;84;83;83;78;77;77;
0;0;0;0;93;79;79;87;87;87;83;82;82;84;83;83;78;77;77;
0;0;0;0;93;79;79;87;87;87;82;82;82;83;83;83;78;77;77;
0;0;0;0;94;80;80;87;87;87;82;82;82;83;83;83;77;77;77;
0;0;0;0;94;80;80;87;87;87;82;82;82;83;83;83;77;77;77;
0;0;0;0;94;80;80;87;87;87;82;82;82;83;83;83;77;77;77;
0;0;0;0;94;80;80;87;87;87;82;82;82;83;83;83;77;77;77;
0;0;0;0;94;80;80;87;87;87;82;82;82;83;83;83;77;77;77;
0;0;0;0;94;80;80;87;87;87;82;82;82;83;83;83;77;77;77;
0;0;0;0;94;80;80;87;87;87;82;82;82;83;83;83;77;77;77;
0;0;0;0;94;80;80;87;87;87;82;82;82;83;83;83;77;77;77;
0;0;0;0;94;80;80;87;87;87;82;82;82;83;83;83;77;77;77;
0;0;0;0;94;80;80;87;87;87;82;82;82;83;83;83;77;77;77;
0;0;0;0;94;80;80;87;87;87;82;82;82;83;83;83;77;77;77;
0;0;0;0;94;80;80;87;87;87;82;82;82;83;83;83;77;77;77;
0;0;0;0;94;80;80;87;87;87;82;82;82;83;83;83;77;77;77;
0;0;0;0;94;80;80;87;87;87;82;82;82;83;83;83;77;77;77;
0;0;0;0;94;80;80;87;87;87;82;82;82;83;83;83;77;77;77;
0;0;0;0;94;80;80;87;87;87;82;82;82;83;83;83;77;77;77;
0;0;0;0;94;80;80;87;87;87;82;82;82;83;83;83;77;77;77;
0;0;0;0;94;80;80;87;87;87;82;82;82;83;83;83;77;77;77;
0;0;0;0;94;80;80;87;87;87;82;82;82;83;83;83;77;77;77;
0;0;0;0;94;80;80;87;87;87;82;82;82;83;83;83;77;77;77;
0;0;0;0;94;80;80;87;87;87;82;82;82;83;83;83;77;77;77;
0;0;0;0;94;80;80;87;87;87;82;82;82;83;83;83;77;77;77;
0;0;0;0;94;80;80;87;87;87;82;82;82;83;83;83;77;77;77;
0;0;0;0;94;80;80;87;87;87;82;82;82;83;83;83;77;77;77;
0;0;0;0;94;80;80;87;87;87;82;82;82;83;83;83;77;77;77;
0;0;0;0;94;80;80;87;87;87;82;82;82;83;83;83;77;77;77;
0;0;0;0;94;80;80;87;87;87;82;82;82;83;83;83;77;77;77;
0;0;0;0;94;80;80;87;87;87;82;82;82;83;83;83;77;77;77;
0;0;0;0;94;80;80;87;87;87;82;82;82;83;83;83;77;77;77;
0;0;0;0;94;80;80;87;87;87;82;82;82;83;83;83;77;77;77;
0;0;0;0;94;80;80;87;87;87;82;82;82;83;83;83;77;77;77;
0;0;0;0;94;80;80;87;87;87;82;82;82;83;83;83;77;77;77;
0;0;0;0;94;80;80;87;87;87;82;82;82;83;83;83;77;77;77;
0;0;0;0;94;80;80;87;87;87;82;82;82;83;83;83;77;77;77;
0;0;0;0;94;80;80;87;87;87;82;82;82;83;83;83;77;77;77;
0;0;0;0;94;80;80;87;87;87;82;82;82;83;83;83;77;77;77;
0;0;0;0;94;80;80;87;87;87;82;82;82;83;83;83;77;77;77;
0;0;0;0;94;80;80;87;87;87;82;82;82;83;83;83;77;77;77;
1;1;1;1;94;80;80;87;87;87;82;82;82;83;83;83;77;77;77;
1;1;1;1;94;80;80;87;87;87;82;82;82;83;83;83;77;77;77;
1;1;1;1;94;80;80;87;87;87;82;82;82;83;83;83;77;77;77;
1;1;1;1;94;80;80;87;87;87;82;82;82;83;83;83;77;77;77;
1;1;1;1;94;80;80;87;87;87;82;82;82;83;83;83;77;77;77;
1;1;2;2;94;80;80;87;87;87;82;82;82;83;83;83;77;77;77;
2;2;2;2;94;80;80;87;87;87;82;82;82;83;83;83;77;77;77;
2;2;2;2;94;80;80;87;87;87;82;82;82;83;83;83;77;77;77;
2;2;2;2;94;80;80;87;87;87;82;82;82;83;83;83;77;77;77;
2;2;2;2;94;80;80;87;87;87;82;82;82;83;83;83;77;77;77;
2;2;2;2;94;80;80;87;87;87;82;82;82;83;83;83;77;77;77;
2;2;2;2;94;80;80;87;87;87;82;82;82;83;83;83;77;77;77;
2;2;2;2;94;80;80;87;87;87;82;82;82;83;83;83;77;77;77;
2;2;2;2;94;80;80;87;87;87;82;82;82;83;83;83;77;77;77;
2;2;2;2;94;80;80;87;87;87;82;82;82;83;83;83;77;77;77;
2;2;2;2;94;80;80;87;87;87;82;82;82;83;83;83;77;77;77;
2;2;2;2;94;80;80;87;87;87;82;82;82;83;83;83;77;77;77;
2;2;2;2;94;80;80;87;87;87;82;82;82;83;83;83;77;77;77;
2;2;2;2;94;80;80;87;87;87;82;82;82;83;83;83;77;77;77;
2;2;2;2;94;80;80;87;87;87;82;82;82;83;83;83;77;77;77;
2;2;2;2;94;80;80;87;87;87;82;82;82;83;83;83;77;77;77;
2;2;2;2;94;80;80;87;87;87;82;82;82;83;83;83;77;77;77;
2;2;2;2;94;80;80;87;87;87;82;82;82;83;83;83;77;77;77;
2;2;2;2;94;80;80;87;87;87;82;82;82;83;83;83;77;77;77;
2;2;2;2;94;80;80;87;87;87;82;82;82;83;83;83;77;77;77;
2;2;2;2;94;80;80;87;87;87;82;82;82;83;83;83;77;77;77;
2;2;2;2;94;80;80;87;87;87;82;82;82;83;83;83;77;77;77;
2;2;2;2;95;80;80;87;87;87;82;82;82;83;82;82;77;76;76;
2;2;2;2;95;80;80;87;87;87;82;82;82;83;82;82;77;76;76;
2;2;2;2;95;80;80;87;87;87;82;82;82;83;82;82;77;76;76;
2;2;2;2;95;80;80;87;87;87;82;82;82;83;82;82;77;76;76;
2;2;2;2;95;80;80;87;87;87;82;82;82;83;82;82;77;76;76;
2;2;2;2;95;80;80;87;87;87;82;82;82;83;82;82;77;76;76;
2;2;2;2;95;80;80;87;87;87;82;82;82;83;82;82;77;76;76;
2;2;2;2;95;80;80;87;87;87;82;82;82;83;82;82;77;76;76;
2;2;2;2;95;80;80;87;87;87;82;82;82;83;82;82;77;76;76;
2;2;2;2;95;80;80;87;87;87;82;82;82;83;82;82;77;76;76;
2;2;2;2;95;80;80;87;87;87;82;82;82;83;82;82;77;76;76;
2;2;2;2;95;80;80;87;87;87;82;82;82;83;82;82;77;76;76;
2;2;2;2;95;80;80;87;87;87;82;82;82;83;82;82;77;76;76;
2;2;2;2;95;80;80;87;87;87;82;82;82;83;82;82;77;76;76;
2;2;2;2;95;80;80;87;87;87;82;82;82;83;82;82;77;76;76;
2;2;2;2;95;80;80;87;87;87;82;82;82;83;82;82;77;76;76;
2;2;2;2;95;80;80;87;87;87;82;82;82;83;82;82;77;76;76;
2;2;2;2;95;80;80;87;87;87;82;82;82;83;82;82;77;76;76;
2;2;2;2;95;80;80;87;87;87;82;82;82;83;82;82;77;76;76;
2;2;2;2;95;80;80;87;87;87;82;82;82;83;82;82;77;76;76;
2;2;2;2;95;81;81;87;87;87;82;81;81;83;82;82;77;76;76;
2;2;2;2;95;81;81;87;87;87;82;81;81;83;82;82;77;76;76;
2;2;2;2;95;81;81;87;87;87;82;81;81;83;82;82;77;76;76;
2;2;2;2;95;81;81;87;87;87;82;81;81;83;82;82;77;76;76;
2;2;2;2;95;81;81;87;87;87;82;81;81;82;82;82;77;76;76;
2;2;2;2;96;82;82;87;87;87;82;81;81;82;82;82;76;76;76;
2;2;2;2;96;82;82;87;87;87;82;81;81;82;82;82;76;76;76;
2;2;2;2;96;82;82;87;87;87;82;81;81;82;82;82;76;76;76;
2;2;2;2;96;82;82;87;87;87;82;81;81;82;82;82;76;76;76;
2;2;2;2;96;82;82;87;87;87;82;81;81;82;82;82;76;76;76;
2;2;2;2;96;82;82;87;87;87;82;81;81;82;82;82;76;76;76;
2;2;2;2;96;82;82;87;87;87;82;81;81;82;82;82;76;76;76;
2;2;2;2;96;82;82;87;87;87;82;81;81;82;82;82;76;76;76;
2;2;2;2;96;82;82;87;87;87;82;81;81;82;82;82;76;76;76;
