## File generated by myo_cap software 
## Available from github.com/ddantas/myo_cap 
## Timestamp: 2019-02-04_16-18-50 
##  
## EMG capture settings 
##  
# sampleRate: 2000 
# channelsPerBoard: 4 
# nBoards: 1 
# bitsPerSample: 12 
# ch/%d;%d;%d;%d;lp/%d;%d;%d;%d;%d;%d;%d;%d;%d;%d;%d;%d;%d;%d;%d;
0;0;0;0;57;89;89;96;97;97;4;4;4;8;5;5;5;10;10;
0;0;0;0;56;87;87;96;97;97;5;3;3;7;5;5;5;9;9;
0;0;0;0;57;87;87;96;97;97;5;3;3;6;5;5;5;9;9;
0;0;0;0;57;87;87;96;97;97;5;3;3;6;5;5;5;9;9;
0;0;0;0;57;87;87;96;97;97;5;3;3;6;5;5;5;9;9;
0;0;0;0;57;87;87;96;97;97;5;3;3;6;5;5;5;9;9;
0;0;0;0;57;87;87;96;97;97;5;3;3;6;5;5;5;9;9;
0;0;0;0;57;87;87;96;97;97;5;3;3;6;5;5;5;9;9;
0;0;0;0;57;87;87;96;97;97;5;3;3;6;5;5;5;9;9;
0;0;0;0;57;87;87;96;97;97;5;3;3;6;5;5;5;9;9;
0;0;0;0;57;87;87;96;97;97;5;3;3;6;5;5;5;9;9;
0;0;0;0;57;87;87;96;97;97;5;3;3;6;5;5;5;9;9;
0;0;0;0;57;87;87;96;97;97;5;3;3;6;5;5;5;9;9;
0;0;0;0;57;87;87;96;97;97;5;3;3;6;5;5;5;9;9;
0;0;0;0;57;87;87;96;97;97;5;3;3;6;5;5;5;9;9;
0;0;0;0;57;87;87;96;97;97;5;3;3;6;5;5;5;9;9;
0;0;0;0;57;87;87;96;97;97;5;3;3;6;5;5;5;9;9;
0;0;0;0;57;87;87;96;97;97;5;3;3;6;5;5;5;9;9;
0;0;0;0;57;87;87;96;97;97;5;3;3;6;5;5;5;9;9;
0;0;0;0;57;87;87;96;97;97;5;3;3;6;5;5;5;9;9;
0;0;0;0;57;87;87;96;97;97;5;3;3;6;5;5;5;9;9;
0;0;0;0;57;87;87;96;97;97;5;3;3;6;5;5;5;9;9;
0;0;0;0;57;87;87;96;97;97;5;3;3;6;5;5;5;9;9;
0;0;0;0;57;87;87;96;97;97;5;3;3;6;5;5;5;9;9;
0;0;0;0;57;87;87;96;97;97;5;3;3;6;5;5;5;9;9;
0;0;0;0;57;87;87;96;97;97;5;3;3;6;5;5;5;9;9;
0;0;0;0;57;87;87;96;97;97;5;3;3;6;5;5;5;9;9;
0;0;0;0;57;87;87;96;97;97;5;3;3;6;5;5;5;9;9;
0;0;0;0;57;87;87;96;97;97;5;3;3;6;5;5;5;9;9;
0;0;0;0;57;87;87;96;97;97;5;3;3;6;5;5;5;9;9;
0;0;0;0;57;87;87;96;97;97;5;3;3;6;5;5;5;9;9;
0;0;0;0;57;87;87;96;97;97;5;3;3;6;5;5;5;9;9;
0;0;0;0;57;87;87;96;97;97;5;3;3;6;5;5;5;9;9;
0;0;0;0;57;87;87;96;97;97;5;3;3;6;5;5;5;9;9;
0;0;0;0;57;87;87;96;97;97;5;3;3;6;5;5;5;9;9;
0;0;0;0;57;87;87;96;97;97;5;3;3;6;5;5;5;9;9;
0;0;0;0;57;87;87;96;97;97;5;3;3;6;5;5;5;9;9;
0;0;0;0;57;87;87;96;97;97;5;3;3;6;5;5;5;9;9;
0;0;0;0;57;87;87;96;97;97;5;3;3;6;5;5;5;9;9;
0;0;0;0;57;87;87;96;97;97;5;3;3;6;5;5;5;9;9;
0;0;0;0;57;87;87;96;97;97;5;3;3;6;5;5;5;9;9;
0;0;0;0;57;87;87;96;97;97;5;3;3;6;5;5;5;9;9;
0;0;0;0;57;87;87;96;97;97;5;3;3;6;5;5;5;9;9;
0;0;0;0;57;87;87;96;97;97;5;3;3;6;5;5;5;9;9;
0;0;0;0;57;87;87;96;97;97;5;3;3;6;5;5;5;9;9;
0;0;0;0;57;87;87;96;97;97;5;3;3;6;5;5;5;9;9;
0;0;0;0;57;87;87;96;97;97;5;3;3;6;5;5;5;9;9;
0;0;0;0;57;87;87;96;97;97;5;3;3;6;5;5;5;9;9;
0;0;0;0;57;87;87;96;97;97;5;3;3;6;5;5;5;9;9;
0;0;0;0;57;87;87;96;97;97;5;3;3;6;5;5;5;9;9;
0;0;0;0;57;87;87;96;97;97;5;3;3;6;5;5;5;9;9;
0;0;0;0;57;87;87;96;97;97;5;3;3;6;5;5;5;9;9;
0;0;0;0;57;87;87;96;97;97;5;3;3;6;5;5;5;9;9;
0;0;0;0;57;87;87;96;97;97;5;3;3;6;5;5;5;9;9;
0;0;0;0;57;87;87;96;97;97;5;3;3;6;5;5;5;9;9;
0;0;0;0;57;87;87;96;97;97;5;3;3;6;5;5;5;9;9;
0;0;0;0;57;87;87;96;97;97;5;3;3;6;5;5;5;9;9;
0;0;0;0;57;87;87;96;97;97;5;3;3;6;5;5;5;9;9;
0;0;0;0;57;87;87;96;97;97;5;3;3;6;5;5;5;9;9;
0;0;0;0;57;87;87;96;97;97;5;3;3;6;5;5;5;9;9;
0;0;0;0;57;87;87;96;97;97;5;3;3;6;5;5;5;9;9;
0;0;0;0;57;87;87;96;97;97;5;3;3;6;5;5;5;9;9;
0;0;0;0;57;87;87;96;97;97;5;3;3;6;5;5;5;9;9;
0;0;0;0;57;87;87;96;97;97;5;3;3;6;5;5;5;9;9;
0;0;0;0;57;87;87;96;97;97;5;3;3;6;5;5;5;9;9;
0;0;0;0;57;87;87;96;97;97;5;3;3;6;5;5;5;9;9;
0;0;0;0;57;87;87;96;97;97;5;3;3;6;5;5;5;9;9;
0;0;0;0;57;87;87;96;97;97;5;3;3;6;5;5;5;9;9;
0;0;0;0;57;87;87;96;97;97;5;3;3;6;5;5;5;9;9;
0;0;0;0;57;87;87;96;97;97;5;3;3;6;5;5;5;9;9;
0;0;0;0;57;87;87;96;97;97;5;3;3;6;5;5;5;9;9;
0;0;0;0;57;87;87;96;97;97;5;3;3;6;5;5;5;9;9;
0;0;0;0;57;87;87;96;97;97;5;3;3;6;5;5;5;9;9;
0;0;0;0;57;87;87;96;97;97;5;3;3;6;5;5;5;9;9;
0;0;0;0;57;87;87;96;97;97;5;3;3;6;5;5;5;9;9;
0;0;0;0;56;86;86;96;97;97;4;3;3;5;6;6;5;9;9;
0;0;0;0;56;86;86;96;97;97;4;3;3;5;6;6;5;9;9;
0;0;0;0;56;86;86;96;97;97;4;3;3;5;6;6;5;9;9;
0;0;0;0;56;86;86;96;97;97;4;3;3;5;6;6;5;9;9;
0;0;0;0;56;86;86;96;97;97;4;3;3;5;6;6;5;9;9;
0;0;0;0;56;86;86;96;97;97;4;3;3;5;6;6;5;9;9;
0;0;0;0;56;86;86;96;97;97;4;3;3;5;6;6;5;9;9;
0;0;0;0;56;86;86;96;97;97;4;3;3;5;6;6;5;9;9;
0;0;0;0;56;86;86;96;97;97;4;3;3;5;6;6;5;9;9;
0;0;0;0;56;86;86;96;97;97;4;3;3;5;6;6;5;9;9;
0;0;0;0;56;86;86;96;97;97;4;3;3;5;6;6;5;9;9;
0;0;0;0;56;86;86;96;97;97;4;3;3;5;6;6;5;9;9;
0;0;0;0;56;86;86;96;97;97;4;3;3;5;6;6;5;9;9;
0;0;0;0;56;86;86;96;97;97;4;3;3;5;6;6;5;9;9;
0;0;0;0;56;86;86;96;97;97;4;3;3;5;6;6;5;9;9;
0;0;0;0;56;86;86;96;97;97;4;3;3;5;6;6;5;9;9;
0;0;0;0;56;86;86;96;97;97;4;3;3;5;6;6;5;9;9;
0;0;0;0;56;86;86;96;97;97;4;3;3;5;6;6;5;9;9;
0;0;0;0;56;86;86;96;97;97;4;3;3;5;6;6;5;9;9;
0;0;0;0;56;86;86;96;97;97;4;3;3;5;6;6;5;9;9;
0;0;0;0;56;86;86;96;97;97;4;3;3;5;6;6;5;9;9;
0;0;0;0;56;86;86;96;97;97;4;3;3;5;6;6;5;9;9;
0;0;0;0;56;86;86;96;97;97;4;3;3;5;6;6;5;9;9;
0;0;0;0;56;86;86;96;97;97;4;3;3;5;6;6;5;9;9;
0;0;0;0;56;86;86;96;97;97;4;3;3;5;6;6;5;9;9;
0;0;0;0;56;86;86;96;97;97;4;3;3;5;6;6;5;9;9;
0;0;0;0;56;86;86;96;97;97;4;3;3;5;6;6;5;9;9;
0;0;0;0;56;86;86;96;97;97;4;3;3;5;6;6;5;9;9;
0;0;0;0;56;86;86;96;97;97;4;3;3;5;6;6;5;9;9;
0;0;0;0;56;86;86;96;97;97;4;3;3;5;6;6;5;9;9;
0;0;0;0;56;86;86;96;97;97;4;3;3;5;6;6;5;9;9;
0;0;0;0;56;86;86;96;97;97;4;3;3;5;6;6;5;9;9;
0;0;0;0;56;86;86;96;97;97;4;3;3;5;6;6;5;9;9;
0;0;0;0;56;86;86;96;97;97;4;3;3;5;6;6;5;9;9;
0;0;0;0;56;86;86;96;97;97;4;3;3;5;6;6;5;9;9;
0;0;0;0;56;86;86;96;97;97;4;3;3;5;6;6;5;9;9;
0;0;0;0;56;86;86;96;97;97;4;3;3;5;6;6;5;9;9;
0;0;0;0;56;86;86;96;97;97;4;3;3;5;6;6;5;9;9;
0;0;0;0;52;86;86;96;97;97;2;8;8;5;10;10;5;14;14;
0;0;0;0;52;86;86;96;97;97;2;8;8;5;10;10;5;14;14;
0;0;0;0;52;86;86;96;97;97;2;8;8;5;10;10;5;14;14;
0;0;0;0;52;86;86;96;97;97;2;8;8;5;10;10;5;14;14;
0;0;0;0;52;86;86;96;97;97;2;8;8;4;10;10;5;14;14;
0;0;0;0;52;85;85;96;97;97;2;7;7;4;9;9;5;13;13;
0;0;0;0;52;84;84;96;97;97;2;6;6;4;9;9;5;12;12;
0;0;0;0;52;84;84;96;97;97;2;6;6;4;9;9;5;12;12;
0;0;0;0;52;84;84;96;97;97;2;6;6;4;9;9;5;12;12;
0;0;0;0;52;84;84;96;97;97;2;6;6;4;9;9;5;12;12;
0;0;0;0;52;84;84;96;97;97;2;6;6;4;9;9;5;12;12;
0;0;0;0;52;84;84;96;97;97;2;6;6;4;9;9;5;12;12;
0;0;0;0;52;84;84;96;97;97;2;6;6;4;9;9;5;12;12;
0;0;0;0;52;84;84;96;97;97;2;6;6;4;9;9;5;12;12;
0;0;0;0;52;84;84;96;97;97;2;6;6;4;9;9;5;12;12;
0;0;0;0;52;84;84;96;97;97;2;6;6;4;9;9;5;12;12;
0;0;0;0;52;84;84;96;97;97;2;6;6;4;9;9;5;12;12;
0;0;0;0;52;84;84;96;97;97;2;6;6;4;9;9;5;12;12;
0;0;0;0;54;84;84;96;97;97;2;5;5;4;8;8;4;11;11;
0;0;0;0;56;84;84;96;97;97;2;5;5;4;8;8;4;11;11;
0;0;0;0;59;84;84;95;97;97;2;5;5;3;7;7;3;11;11;
0;0;0;0;59;84;84;95;97;97;2;5;5;3;7;7;3;11;11;
0;0;0;0;59;84;84;95;97;97;2;5;5;3;7;7;3;11;11;
0;0;0;0;59;84;84;95;97;97;2;5;5;3;7;7;3;11;11;
0;0;0;0;59;84;84;95;97;97;2;5;5;3;7;7;3;11;11;
0;0;0;0;59;84;84;95;97;97;2;5;5;3;7;7;3;11;11;
0;0;0;0;59;84;84;95;97;97;2;5;5;3;7;7;3;11;11;
0;0;0;0;61;85;85;96;98;98;2;5;5;2;8;8;2;12;12;
0;0;0;0;61;85;85;96;98;98;2;5;5;2;8;8;2;12;12;
0;0;0;0;61;85;85;96;98;98;2;5;5;2;8;8;2;12;12;
0;0;0;0;61;85;85;96;98;98;2;5;5;2;8;8;2;12;12;
0;0;0;0;61;85;85;96;98;98;2;5;5;2;8;8;2;12;12;
0;0;0;0;61;85;85;96;98;98;2;5;5;2;8;8;2;12;12;
0;0;0;0;61;85;85;96;98;98;2;5;5;2;8;8;2;12;12;
0;0;0;0;61;85;85;96;98;98;2;5;5;2;8;8;2;12;12;
0;0;0;0;61;85;85;96;98;98;2;5;5;2;8;8;2;12;12;
0;0;0;0;61;85;85;96;98;98;2;5;5;2;8;8;2;12;12;
0;0;0;0;61;85;85;96;98;98;2;5;5;2;8;8;2;12;12;
0;0;0;0;61;85;85;96;98;98;2;5;5;2;8;8;2;12;12;
0;0;0;0;61;85;85;96;98;98;2;5;5;2;8;8;2;12;12;
0;0;0;0;61;85;85;96;98;98;2;5;5;2;8;8;2;12;12;
0;0;0;0;61;85;85;96;98;98;2;5;5;2;8;8;2;12;12;
0;0;0;0;61;85;85;96;98;98;2;5;5;2;8;8;2;12;12;
0;0;0;0;61;85;85;96;98;98;2;5;5;2;8;8;2;12;12;
0;0;0;0;61;85;85;96;98;98;2;5;5;2;8;8;2;12;12;
0;0;0;0;61;85;85;96;98;98;2;5;5;2;8;8;2;12;12;
0;0;0;0;61;85;85;96;98;98;2;5;5;2;8;8;2;12;12;
0;0;0;0;61;85;85;96;98;98;2;5;5;2;8;8;2;12;12;
0;0;0;0;61;85;85;96;98;98;2;5;5;2;8;8;2;12;12;
0;0;0;0;61;85;85;96;98;98;2;5;5;2;8;8;2;12;12;
0;0;0;0;61;85;85;96;98;98;2;5;5;2;8;8;2;12;12;
0;0;0;0;61;85;85;96;98;98;2;5;5;2;8;8;2;12;12;
0;0;0;0;61;85;85;96;98;98;2;5;5;2;8;8;2;12;12;
0;0;0;0;61;85;85;96;98;98;2;5;5;2;8;8;2;12;12;
0;0;0;0;61;85;85;96;98;98;2;5;5;2;8;8;2;12;12;
0;0;0;0;61;85;85;96;98;98;2;5;5;2;8;8;2;12;12;
0;0;0;0;61;85;85;96;98;98;2;5;5;2;8;8;2;12;12;
0;0;0;0;61;85;85;96;98;98;2;5;5;2;8;8;2;12;12;
0;0;0;0;61;85;85;96;98;98;2;5;5;2;8;8;2;12;12;
0;0;0;0;61;85;85;96;98;98;2;5;5;2;8;8;2;12;12;
0;0;0;0;61;85;85;96;98;98;2;5;5;2;8;8;2;12;12;
0;0;0;0;61;85;85;96;98;98;2;5;5;2;8;8;2;12;12;
0;0;0;0;61;85;85;96;98;98;2;5;5;2;8;8;2;12;12;
0;0;0;0;61;85;85;96;98;98;2;5;5;2;8;8;2;12;12;
0;0;0;0;61;85;85;96;98;98;2;5;5;2;8;8;2;12;12;
0;0;0;0;61;85;85;96;98;98;2;5;5;2;8;8;2;12;12;
0;0;0;0;61;85;85;96;98;98;2;5;5;2;8;8;2;12;12;
0;0;0;0;61;85;85;96;98;98;2;5;5;2;8;8;2;12;12;
0;0;0;0;61;85;85;96;98;98;2;5;5;2;8;8;2;12;12;
0;0;0;0;61;85;85;96;98;98;2;5;5;2;8;8;2;12;12;
0;0;0;0;61;85;85;96;98;98;2;5;5;2;8;8;2;12;12;
0;0;0;0;60;85;85;96;98;98;1;6;6;2;9;9;2;14;14;
0;0;0;0;60;85;85;96;98;98;1;6;6;2;9;9;2;14;14;
0;0;0;0;60;85;85;96;98;98;1;6;6;2;9;9;2;14;14;
0;0;0;0;60;85;85;96;98;98;1;6;6;2;9;9;2;14;14;
0;0;0;0;60;85;85;96;98;98;1;6;6;2;9;9;2;14;14;
0;0;0;0;60;85;85;96;98;98;1;6;6;2;9;9;2;14;14;
0;0;0;0;60;85;85;96;98;98;1;6;6;2;9;9;2;14;14;
0;0;0;0;60;85;85;96;98;98;1;6;6;2;9;9;2;14;14;
0;0;0;0;60;85;85;96;98;98;1;6;6;2;9;9;2;14;14;
0;0;0;0;60;85;85;96;98;98;1;6;6;2;9;9;2;14;14;
0;0;0;0;60;85;85;96;98;98;1;6;6;2;9;9;2;14;14;
0;0;0;0;60;85;85;96;98;98;1;6;6;2;10;10;2;15;15;
0;0;0;0;60;85;85;96;98;98;1;6;6;2;10;10;2;15;15;
0;0;0;0;60;85;85;96;98;98;1;6;6;2;10;10;2;15;15;
0;0;0;0;60;85;85;96;98;98;1;6;6;2;10;10;2;15;15;
0;0;0;0;58;85;85;96;98;98;1;7;7;2;10;10;2;16;16;
0;0;0;0;58;85;85;96;98;98;1;7;7;2;10;10;2;16;16;
0;0;0;0;58;85;85;96;98;98;1;7;7;2;10;10;2;16;16;
0;0;0;0;58;85;85;96;98;98;1;7;7;2;11;11;2;17;17;
0;0;0;0;55;84;84;95;97;97;1;7;7;3;11;11;3;18;18;
0;0;0;0;55;84;84;95;97;97;1;7;7;3;11;11;3;18;18;
0;0;0;0;52;83;83;94;97;97;2;7;7;3;11;11;3;19;19;
0;0;0;0;51;83;83;93;96;96;2;8;8;4;11;11;4;21;21;
0;0;0;0;51;83;83;93;96;96;2;8;8;4;11;11;4;21;21;
0;0;0;0;51;83;83;93;96;96;2;8;8;4;11;11;4;21;21;
0;0;0;0;51;83;83;93;96;96;2;8;8;4;11;11;4;21;21;
0;0;0;0;51;83;83;93;96;96;2;8;8;4;11;11;4;21;21;
0;0;0;0;51;83;83;93;96;96;2;8;8;4;11;11;4;21;21;
0;0;0;0;51;83;83;93;96;96;2;8;8;4;11;11;4;21;21;
0;0;0;0;51;83;83;93;96;96;2;8;8;4;11;11;4;21;21;
0;0;0;0;51;83;83;93;96;96;2;8;8;4;11;11;4;21;21;
0;0;0;0;51;83;83;93;96;96;2;8;8;4;11;11;4;21;21;
0;0;0;0;51;83;83;93;96;96;2;8;8;4;11;11;4;21;21;
0;0;0;0;51;83;83;93;96;96;2;8;8;4;11;11;4;21;21;
0;0;0;0;51;83;83;93;96;96;2;8;8;4;11;11;4;21;21;
0;0;0;0;51;83;83;93;96;96;2;8;8;4;11;11;4;21;21;
0;0;0;0;51;83;83;93;96;96;2;8;8;4;11;11;4;21;21;
0;0;0;0;51;83;83;93;96;96;2;8;8;4;11;11;4;21;21;
0;0;0;0;51;83;83;93;96;96;2;8;8;4;11;11;4;21;21;
0;0;0;0;51;83;83;93;96;96;2;8;8;4;11;11;4;21;21;
0;0;0;0;51;83;83;93;96;96;2;8;8;4;11;11;4;21;21;
0;0;0;0;51;83;83;93;96;96;2;8;8;4;11;11;4;21;21;
0;0;0;0;51;83;83;93;96;96;2;8;8;4;11;11;4;21;21;
0;0;0;0;51;83;83;93;96;96;2;8;8;4;11;11;4;21;21;
0;0;0;0;51;83;83;93;96;96;2;8;8;4;11;11;4;21;21;
0;0;0;0;51;83;83;93;96;96;2;8;8;4;11;11;4;21;21;
0;0;0;0;51;83;83;93;96;96;2;8;8;4;11;11;4;21;21;
0;0;0;0;51;83;83;93;96;96;2;8;8;4;11;11;4;21;21;
0;0;0;0;51;83;83;93;96;96;2;8;8;4;11;11;4;21;21;
0;0;0;0;51;83;83;93;96;96;2;8;8;4;11;11;4;21;21;
0;0;0;0;51;83;83;93;96;96;2;8;8;4;11;11;4;21;21;
0;0;0;0;51;83;83;93;96;96;2;8;8;4;11;11;4;21;21;
0;0;0;0;51;83;83;93;96;96;2;8;8;4;11;11;4;21;21;
0;0;0;0;51;83;83;93;96;96;2;8;8;4;11;11;4;21;21;
0;0;0;0;51;83;83;93;96;96;2;8;8;4;11;11;4;21;21;
0;0;0;0;51;83;83;93;96;96;2;8;8;4;11;11;4;21;21;
0;0;0;0;51;83;83;93;96;96;2;8;8;4;11;11;4;21;21;
0;0;0;0;51;83;83;93;96;96;2;8;8;4;11;11;4;21;21;
0;0;0;0;51;83;83;93;96;96;2;8;8;4;11;11;4;21;21;
0;0;0;0;51;83;83;93;96;96;2;8;8;4;11;11;4;21;21;
0;0;0;0;51;83;83;93;96;96;2;8;8;4;11;11;4;21;21;
0;0;0;0;51;83;83;93;96;96;2;8;8;4;11;11;4;21;21;
0;0;0;0;51;83;83;93;96;96;2;8;8;4;11;11;4;21;21;
0;0;0;0;51;83;83;93;96;96;2;8;8;4;11;11;4;21;21;
0;0;0;0;51;83;83;93;96;96;2;8;8;4;11;11;4;21;21;
0;0;0;0;51;83;83;93;96;96;2;8;8;4;11;11;4;21;21;
0;0;0;0;51;83;83;93;96;96;2;8;8;4;11;11;4;21;21;
0;0;0;0;51;83;83;93;96;96;2;8;8;4;11;11;4;21;21;
0;0;0;0;51;83;83;93;96;96;2;8;8;4;11;11;4;21;21;
0;0;0;0;51;83;83;93;96;96;2;8;8;4;11;11;4;21;21;
0;0;0;0;51;83;83;93;96;96;2;8;8;4;11;11;4;21;21;
0;0;0;0;51;83;83;93;96;96;2;8;8;4;11;11;4;21;21;
0;0;0;0;51;83;83;93;96;96;2;8;8;4;11;11;4;21;21;
0;0;0;0;51;83;83;93;96;96;2;8;8;4;11;11;4;21;21;
0;0;0;0;51;83;83;93;96;96;2;8;8;4;11;11;4;21;21;
0;0;0;0;51;83;83;93;96;96;2;8;8;4;11;11;4;21;21;
0;0;0;0;51;83;83;93;96;96;2;8;8;4;11;11;4;21;21;
0;0;0;0;51;83;83;93;96;96;2;8;8;4;11;11;4;21;21;
0;0;0;0;51;83;83;93;96;96;2;8;8;4;11;11;4;21;21;
0;0;0;0;51;83;83;93;96;96;2;8;8;4;11;11;4;21;21;
0;0;0;0;51;83;83;93;96;96;2;8;8;4;11;11;4;21;21;
0;0;0;0;51;83;83;93;96;96;2;8;8;4;11;11;4;21;21;
0;0;0;0;51;83;83;93;96;96;2;8;8;4;11;11;4;21;21;
0;0;0;0;51;83;83;93;96;96;2;8;8;4;11;11;4;21;21;
0;0;0;0;51;83;83;93;96;96;2;8;8;4;11;11;4;21;21;
0;0;0;0;51;83;83;93;96;96;2;8;8;4;11;11;4;21;21;
0;0;0;0;51;83;83;93;96;96;2;8;8;4;11;11;4;21;21;
0;0;0;0;51;83;83;93;96;96;2;8;8;4;11;11;4;21;21;
0;0;0;0;51;83;83;93;96;96;2;8;8;4;11;11;4;21;21;
0;0;0;0;51;83;83;93;96;96;2;8;8;4;11;11;4;21;21;
0;0;0;0;51;83;83;93;96;96;2;8;8;4;11;11;4;21;21;
0;0;0;0;51;83;83;93;96;96;2;8;8;4;11;11;4;21;21;
0;0;0;0;51;83;83;93;96;96;2;8;8;4;11;11;4;21;21;
0;0;0;0;51;83;83;93;96;96;2;8;8;4;11;11;4;21;21;
0;0;0;0;51;83;83;93;96;96;2;8;8;4;11;11;4;21;21;
0;0;0;0;51;83;83;93;96;96;2;8;8;4;11;11;4;21;21;
0;0;0;0;51;83;83;93;96;96;2;8;8;4;11;11;4;21;21;
0;0;0;0;51;83;83;93;96;96;2;8;8;4;11;11;4;21;21;
0;0;0;0;51;83;83;93;96;96;2;8;8;4;11;11;4;21;21;
0;0;0;0;51;83;83;93;96;96;2;8;8;4;11;11;4;21;21;
0;0;0;0;51;83;83;93;96;96;2;8;8;4;11;11;4;21;21;
0;0;0;0;51;83;83;93;96;96;2;8;8;4;11;11;4;21;21;
0;0;0;0;52;83;83;88;94;94;3;5;5;5;8;8;4;20;20;
0;0;0;0;52;83;83;86;92;92;4;4;4;6;7;7;4;22;22;
0;0;0;0;52;83;83;86;92;92;4;4;4;6;7;7;4;22;22;
0;0;0;0;52;83;83;86;92;92;4;4;4;6;7;7;4;22;22;
0;0;0;0;52;83;83;86;92;92;4;4;4;6;7;7;4;22;22;
0;0;0;0;52;83;83;86;92;92;4;4;4;6;7;7;4;22;22;
0;0;0;0;52;83;83;86;92;92;4;4;4;6;7;7;4;22;22;
0;0;0;0;52;83;83;86;92;92;4;4;4;6;7;7;4;22;22;
0;0;0;0;52;83;83;86;92;92;4;4;4;6;7;7;4;22;22;
0;0;0;0;52;83;83;86;92;92;4;4;4;6;7;7;4;22;22;
0;0;0;0;52;83;83;86;92;92;4;4;4;6;7;7;4;22;22;
0;0;0;0;52;83;83;86;92;92;4;4;4;6;7;7;4;22;22;
0;0;0;0;52;83;83;86;92;92;4;4;4;6;7;7;4;22;22;
0;0;0;0;52;83;83;86;92;92;4;4;4;6;7;7;4;22;22;
0;0;0;0;52;83;83;86;92;92;4;4;4;6;7;7;4;22;22;
0;0;0;0;52;83;83;86;92;92;4;4;4;6;7;7;4;22;22;
0;0;0;0;52;83;83;86;92;92;4;4;4;6;7;7;4;22;22;
0;0;0;0;52;83;83;86;92;92;4;4;4;6;7;7;4;22;22;
0;0;0;0;52;83;83;86;92;92;4;4;4;6;7;7;4;22;22;
0;0;0;0;52;83;83;86;92;92;4;4;4;6;7;7;4;22;22;
0;0;0;0;52;83;83;86;92;92;4;4;4;6;7;7;4;22;22;
0;0;0;0;52;83;83;86;92;92;4;4;4;6;7;7;4;22;22;
0;0;0;0;52;83;83;86;92;92;4;4;4;6;7;7;4;22;22;
0;0;0;0;52;83;83;86;92;92;4;4;4;6;7;7;4;22;22;
0;0;0;0;52;83;83;86;92;92;4;4;4;6;7;7;4;22;22;
0;0;0;0;52;83;83;86;92;92;4;4;4;6;7;7;4;22;22;
0;0;0;0;52;83;83;86;92;92;4;4;4;6;7;7;4;22;22;
0;0;0;0;52;83;83;86;92;92;4;4;4;6;7;7;4;22;22;
0;0;0;0;52;83;83;86;92;92;4;4;4;6;7;7;4;22;22;
0;0;0;0;52;83;83;86;92;92;4;4;4;6;7;7;4;22;22;
0;0;0;0;52;83;83;86;92;92;4;4;4;6;7;7;4;22;22;
0;0;0;0;52;83;83;86;92;92;4;4;4;6;7;7;4;22;22;
0;0;0;0;60;87;87;80;89;89;6;2;2;7;5;5;4;13;13;
0;0;0;0;60;87;87;80;89;89;6;2;2;7;5;5;4;13;13;
0;0;0;0;60;87;87;80;89;89;6;2;2;7;5;5;4;13;13;
0;0;0;0;60;87;87;80;89;89;6;2;2;7;5;5;4;13;13;
0;0;0;0;60;87;87;80;89;89;6;2;2;7;5;5;4;13;13;
0;0;0;0;60;87;87;80;89;89;6;2;2;7;5;5;4;13;13;
0;0;0;0;60;87;87;80;89;89;6;2;2;7;5;5;4;13;13;
0;0;0;0;60;87;87;80;89;89;6;2;2;7;5;5;4;13;13;
0;0;0;0;60;87;87;80;89;89;6;2;2;7;5;5;4;13;13;
0;0;0;0;60;87;87;80;89;89;6;2;2;7;5;5;4;13;13;
0;0;0;0;60;87;87;80;89;89;6;2;2;7;5;5;4;13;13;
0;0;0;0;60;87;87;80;89;89;6;2;2;7;5;5;4;13;13;
0;0;0;0;60;87;87;80;89;89;6;2;2;7;5;5;4;13;13;
0;0;0;0;60;87;87;80;89;89;6;2;2;7;5;5;4;13;13;
0;0;0;0;60;87;87;80;89;89;6;2;2;7;5;5;4;13;13;
0;0;0;0;60;87;87;80;89;89;6;2;2;7;5;5;4;13;13;
0;0;0;0;60;87;87;80;89;89;6;2;2;7;5;5;4;13;13;
0;0;0;0;60;87;87;80;89;89;6;2;2;7;5;5;4;13;13;
0;0;0;0;60;87;87;80;89;89;6;2;2;7;5;5;4;13;13;
0;0;0;0;60;87;87;80;89;89;6;2;2;7;5;5;4;13;13;
0;0;0;0;60;87;87;80;89;89;6;2;2;7;5;5;4;13;13;
0;0;0;0;60;87;87;80;89;89;6;2;2;7;5;5;4;13;13;
0;0;0;0;60;87;87;80;89;89;6;2;2;7;5;5;4;13;13;
0;0;0;0;60;87;87;80;89;89;6;2;2;7;5;5;4;13;13;
0;0;0;0;60;87;87;80;89;89;6;2;2;7;5;5;4;13;13;
0;0;0;0;60;87;87;80;89;89;6;2;2;7;5;5;4;13;13;
0;0;0;0;60;87;87;80;89;89;6;2;2;7;5;5;4;13;13;
0;0;0;0;60;87;87;80;89;89;6;2;2;7;5;5;4;13;13;
0;0;0;0;60;87;87;80;89;89;6;2;2;7;5;5;4;13;13;
0;0;0;0;60;87;87;80;89;89;6;2;2;7;5;5;4;13;13;
0;0;0;0;60;87;87;80;89;89;6;2;2;7;5;5;4;13;13;
0;0;0;0;60;87;87;80;89;89;6;2;2;7;5;5;4;13;13;
0;0;0;0;60;87;87;80;89;89;6;2;2;7;5;5;4;13;13;
0;0;0;0;60;87;87;80;89;89;6;2;2;7;5;5;4;13;13;
0;0;0;0;60;87;87;80;89;89;6;2;2;7;5;5;4;13;13;
0;0;0;0;60;87;87;80;89;89;6;2;2;7;5;5;4;13;13;
0;0;0;0;60;87;87;80;89;89;6;2;2;7;5;5;4;13;13;
0;0;0;0;60;87;87;80;89;89;6;2;2;7;5;5;4;13;13;
0;0;0;0;60;87;87;80;89;89;6;2;2;7;5;5;4;13;13;
0;0;0;0;60;87;87;80;89;89;6;2;2;7;5;5;4;13;13;
0;0;0;0;60;87;87;80;89;89;6;2;2;7;5;5;4;13;13;
0;0;0;0;60;87;87;80;89;89;6;2;2;7;5;5;4;13;13;
0;0;0;0;60;87;87;80;89;89;6;2;2;7;5;5;4;13;13;
0;0;0;0;60;87;87;80;89;89;6;2;2;7;5;5;4;13;13;
0;0;0;0;60;87;87;80;89;89;6;2;2;7;5;5;4;13;13;
0;0;0;0;60;87;87;80;89;89;6;2;2;7;5;5;4;13;13;
0;0;0;0;60;87;87;80;89;89;6;2;2;7;5;5;4;13;13;
0;0;0;0;60;87;87;80;89;89;6;2;2;7;5;5;4;13;13;
0;0;0;0;60;87;87;16;38;38;7;1;1;9;4;4;6;10;10;
0;0;0;0;60;87;87;16;38;38;7;1;1;9;4;4;6;10;10;
0;0;0;0;60;87;87;16;38;38;7;1;1;9;4;4;6;10;10;
0;0;0;0;60;87;87;16;38;38;7;1;1;9;4;4;6;10;10;
0;0;0;0;60;87;87;16;38;38;7;1;1;9;4;4;6;10;10;
0;0;0;0;60;87;87;16;38;38;7;1;1;9;4;4;6;10;10;
0;0;0;0;60;87;87;16;38;38;7;1;1;9;4;4;6;10;10;
0;0;0;0;60;87;87;16;38;38;7;1;1;9;4;4;6;10;10;
0;0;0;0;60;87;87;16;38;38;7;1;1;9;4;4;6;10;10;
0;0;0;0;60;87;87;16;38;38;7;1;1;9;4;4;6;10;10;
0;0;0;0;60;87;87;16;38;38;7;1;1;9;4;4;6;10;10;
0;0;0;0;60;87;87;16;38;38;7;1;1;9;4;4;6;10;10;
0;0;0;0;60;87;87;16;38;38;7;1;1;9;4;4;6;10;10;
0;0;0;0;60;87;87;16;38;38;7;1;1;9;4;4;6;10;10;
0;0;0;0;60;87;87;16;38;38;7;1;1;9;4;4;6;10;10;
0;0;0;0;60;87;87;16;38;38;7;1;1;9;4;4;6;10;10;
0;0;0;0;60;87;87;16;38;38;7;1;1;9;4;4;6;10;10;
0;0;0;0;60;87;87;16;38;38;7;1;1;9;4;4;6;10;10;
0;0;0;0;60;87;87;16;38;38;7;1;1;9;4;4;6;10;10;
0;0;0;0;60;87;87;16;38;38;7;1;1;9;4;4;6;10;10;
0;0;0;0;60;87;87;16;38;38;7;1;1;9;4;4;6;10;10;
0;0;0;0;60;87;87;16;38;38;7;1;1;9;4;4;6;10;10;
0;0;0;0;60;87;87;16;38;38;7;1;1;9;4;4;6;10;10;
0;0;0;0;58;83;83;3;2;2;10;1;1;12;4;4;9;8;8;
0;0;0;0;58;83;83;3;2;2;10;1;1;12;4;4;9;8;8;
0;0;0;0;58;83;83;3;2;2;10;1;1;12;4;4;9;8;8;
0;0;0;0;58;83;83;3;2;2;10;1;1;12;4;4;9;8;8;
0;0;0;0;58;83;83;3;2;2;10;1;1;12;4;4;9;8;8;
0;0;0;0;58;83;83;3;2;2;10;1;1;12;4;4;9;8;8;
0;0;0;0;58;83;83;3;2;2;10;1;1;12;4;4;9;8;8;
0;0;0;0;58;83;83;3;2;2;10;1;1;12;4;4;9;8;8;
0;0;0;0;58;83;83;3;2;2;10;1;1;12;4;4;9;8;8;
0;0;0;0;58;83;83;3;2;2;10;1;1;12;4;4;9;8;8;
0;0;0;0;58;83;83;3;2;2;10;1;1;12;4;4;9;8;8;
0;0;0;0;58;83;83;3;2;2;10;1;1;12;4;4;9;8;8;
0;0;0;0;60;84;84;4;1;1;9;0;0;11;3;3;8;6;6;
0;0;0;0;60;84;84;4;1;1;9;0;0;11;3;3;8;6;6;
0;0;0;0;60;84;84;4;1;1;9;0;0;11;3;3;8;6;6;
0;0;0;0;60;84;84;4;1;1;9;0;0;11;3;3;8;6;6;
0;0;0;0;60;84;84;4;1;1;9;0;0;11;3;3;8;6;6;
0;0;0;0;60;84;84;4;1;1;9;0;0;11;3;3;8;6;6;
0;0;0;0;60;84;84;4;1;1;9;0;0;11;3;3;8;6;6;
0;0;0;0;60;84;84;4;1;1;9;0;0;11;3;3;8;6;6;
0;0;0;0;60;84;84;4;1;1;9;0;0;11;3;3;8;6;6;
0;0;0;0;60;84;84;4;1;1;9;0;0;11;3;3;8;6;6;
0;0;0;0;60;84;84;4;1;1;9;0;0;11;3;3;8;6;6;
0;0;0;0;60;84;84;4;1;1;9;0;0;11;3;3;8;6;6;
0;0;0;0;60;84;84;4;1;1;9;0;0;11;3;3;8;6;6;
0;0;0;0;60;84;84;4;1;1;9;0;0;11;3;3;8;6;6;
0;0;0;0;60;84;84;4;1;1;9;0;0;11;3;3;8;6;6;
0;0;0;0;60;84;84;4;1;1;9;0;0;11;3;3;8;6;6;
0;0;0;0;60;84;84;4;1;1;9;0;0;11;3;3;8;6;6;
0;0;0;0;60;84;84;4;1;1;9;0;0;11;3;3;8;6;6;
0;0;0;0;60;84;84;4;1;1;9;0;0;11;3;3;8;6;6;
0;0;0;0;60;84;84;4;1;1;9;0;0;11;3;3;8;6;6;
0;0;0;0;60;84;84;4;1;1;9;0;0;11;3;3;8;6;6;
0;0;0;0;60;84;84;4;1;1;9;0;0;11;3;3;8;6;6;
0;0;0;0;60;84;84;4;1;1;9;0;0;11;3;3;8;6;6;
0;0;0;0;60;84;84;4;1;1;9;0;0;11;3;3;8;6;6;
0;0;0;0;60;84;84;4;1;1;9;0;0;11;3;3;8;6;6;
0;0;0;0;60;84;84;4;1;1;9;0;0;11;3;3;8;6;6;
0;0;0;0;60;84;84;4;1;1;9;0;0;11;3;3;8;6;6;
0;0;0;0;60;84;84;4;1;1;9;0;0;11;3;3;8;6;6;
0;0;0;0;60;84;84;4;1;1;9;0;0;11;3;3;8;6;6;
0;0;0;0;60;84;84;4;1;1;9;0;0;11;3;3;8;6;6;
0;0;0;0;60;84;84;4;1;1;9;0;0;11;3;3;8;6;6;
0;0;0;0;60;84;84;4;1;1;9;0;0;11;3;3;8;6;6;
0;0;0;0;60;84;84;4;1;1;9;0;0;11;3;3;8;6;6;
0;0;0;0;60;84;84;4;1;1;9;0;0;11;3;3;8;6;6;
0;0;0;0;60;84;84;4;1;1;9;0;0;11;3;3;8;6;6;
0;0;0;0;60;84;84;4;1;1;9;0;0;11;3;3;8;6;6;
0;0;0;0;60;84;84;4;1;1;9;0;0;11;3;3;8;6;6;
0;0;0;0;60;84;84;4;1;1;9;0;0;11;3;3;8;6;6;
0;0;0;0;60;84;84;4;1;1;9;0;0;11;3;3;8;6;6;
0;0;0;0;60;84;84;4;1;1;9;0;0;11;3;3;8;6;6;
0;0;0;0;60;84;84;4;1;1;9;0;0;11;3;3;8;6;6;
0;0;0;0;56;77;77;11;0;0;15;1;1;16;3;3;13;5;5;
0;0;0;0;51;72;72;16;0;0;19;2;2;20;5;5;17;7;7;
0;0;0;0;55;77;77;12;0;0;14;1;1;16;4;4;12;6;6;
0;0;0;0;55;77;77;12;0;0;14;1;1;16;4;4;12;6;6;
0;0;0;0;55;77;77;12;0;0;14;1;1;16;4;4;12;6;6;
0;0;0;0;55;77;77;12;0;0;14;1;1;16;4;4;12;6;6;
0;0;0;0;55;77;77;12;0;0;14;1;1;16;4;4;12;6;6;
0;0;0;0;55;77;77;12;0;0;14;1;1;16;4;4;12;6;6;
0;0;0;0;55;77;77;12;0;0;14;1;1;16;4;4;12;6;6;
0;0;0;0;55;77;77;12;0;0;14;1;1;16;4;4;12;6;6;
0;0;0;0;55;77;77;12;0;0;14;1;1;16;4;4;12;6;6;
0;0;0;0;55;77;77;12;0;0;14;1;1;16;4;4;12;6;6;
0;0;0;0;55;77;77;12;0;0;14;1;1;16;4;4;12;6;6;
0;0;0;0;55;77;77;12;0;0;14;1;1;16;4;4;12;6;6;
0;0;0;0;55;77;77;12;0;0;14;1;1;16;4;4;12;6;6;
0;0;0;0;55;77;77;12;0;0;14;1;1;16;4;4;12;6;6;
0;0;0;0;55;77;77;12;0;0;14;1;1;16;4;4;12;6;6;
0;0;0;0;55;77;77;12;0;0;14;1;1;16;4;4;12;6;6;
0;0;0;0;55;77;77;12;0;0;14;1;1;16;4;4;12;6;6;
0;0;0;0;55;77;77;12;0;0;14;1;1;16;4;4;12;6;6;
0;0;0;0;55;77;77;12;0;0;14;1;1;16;4;4;12;6;6;
0;0;0;0;55;77;77;12;0;0;14;1;1;16;4;4;12;6;6;
0;0;0;0;55;77;77;12;0;0;14;1;1;16;4;4;12;6;6;
0;0;0;0;55;77;77;12;0;0;14;1;1;16;4;4;12;6;6;
0;0;0;0;55;77;77;12;0;0;14;1;1;16;4;4;12;6;6;
0;0;0;0;55;77;77;12;0;0;14;1;1;16;4;4;12;6;6;
0;0;0;0;55;77;77;12;0;0;14;1;1;16;4;4;12;6;6;
0;0;0;0;55;77;77;12;0;0;14;1;1;16;4;4;12;6;6;
0;0;0;0;55;77;77;12;0;0;14;1;1;16;4;4;12;6;6;
0;0;0;0;55;77;77;12;0;0;14;1;1;16;4;4;12;6;6;
0;0;0;0;55;77;77;12;0;0;14;1;1;16;4;4;12;6;6;
0;0;0;0;55;77;77;12;0;0;14;1;1;16;4;4;12;6;6;
0;0;0;0;55;77;77;12;0;0;14;1;1;16;4;4;12;6;6;
0;0;0;0;55;77;77;12;0;0;14;1;1;16;4;4;12;6;6;
0;0;0;0;55;77;77;12;0;0;14;1;1;16;4;4;12;6;6;
0;0;0;0;55;77;77;12;0;0;14;1;1;16;4;4;12;6;6;
0;0;0;0;55;77;77;12;0;0;14;1;1;16;4;4;12;6;6;
0;0;0;0;55;77;77;12;0;0;14;1;1;16;4;4;12;6;6;
0;0;0;0;55;77;77;12;0;0;14;1;1;16;4;4;12;6;6;
0;0;0;0;55;77;77;12;0;0;14;1;1;16;4;4;12;6;6;
0;0;0;0;55;77;77;12;0;0;14;1;1;16;4;4;12;6;6;
0;0;0;0;55;77;77;12;0;0;14;1;1;16;4;4;12;6;6;
0;0;0;0;55;77;77;12;0;0;14;1;1;16;4;4;12;6;6;
0;0;0;0;55;77;77;12;0;0;14;1;1;16;4;4;12;6;6;
0;0;0;0;55;77;77;12;0;0;14;1;1;16;4;4;12;6;6;
0;0;0;0;55;77;77;12;0;0;14;1;1;16;4;4;12;6;6;
0;0;0;0;55;77;77;12;0;0;14;1;1;16;4;4;12;6;6;
0;0;0;0;55;77;77;12;0;0;14;1;1;16;4;4;12;6;6;
0;0;0;0;55;77;77;12;0;0;14;1;1;16;4;4;12;6;6;
0;0;0;0;55;77;77;12;0;0;14;1;1;16;4;4;12;6;6;
0;0;0;0;55;77;77;12;0;0;14;1;1;16;4;4;12;6;6;
0;0;0;0;55;77;77;12;0;0;14;1;1;16;4;4;12;6;6;
0;0;0;0;55;77;77;12;0;0;14;1;1;16;4;4;12;6;6;
0;0;0;0;55;77;77;12;0;0;14;1;1;16;4;4;12;6;6;
0;0;0;0;55;77;77;12;0;0;14;1;1;16;4;4;12;6;6;
0;0;0;0;55;77;77;12;0;0;14;1;1;16;4;4;12;6;6;
0;0;0;0;55;77;77;12;0;0;14;1;1;16;4;4;12;6;6;
0;0;0;0;55;77;77;12;0;0;14;1;1;16;4;4;12;6;6;
0;0;0;0;55;77;77;12;0;0;14;1;1;16;4;4;12;6;6;
0;0;0;0;55;77;77;12;0;0;14;1;1;16;4;4;12;6;6;
0;0;0;0;55;77;77;12;0;0;14;1;1;16;4;4;12;6;6;
0;0;0;0;55;77;77;12;0;0;14;1;1;16;4;4;12;6;6;
0;0;0;0;55;77;77;12;0;0;14;1;1;16;4;4;12;6;6;
0;0;0;0;55;77;77;12;0;0;14;1;1;16;4;4;12;6;6;
0;0;0;0;55;77;77;12;0;0;14;1;1;16;4;4;12;6;6;
0;0;0;0;55;77;77;12;0;0;14;1;1;16;4;4;12;6;6;
0;0;0;0;55;77;77;12;0;0;14;1;1;16;4;4;12;6;6;
0;0;0;0;55;77;77;12;0;0;14;1;1;16;4;4;12;6;6;
0;0;0;0;55;77;77;12;0;0;14;1;1;16;4;4;12;6;6;
0;0;0;0;55;77;77;12;0;0;14;1;1;16;4;4;12;6;6;
0;0;0;0;55;77;77;12;0;0;14;1;1;16;4;4;12;6;6;
0;0;0;0;55;77;77;12;0;0;14;1;1;16;4;4;12;6;6;
0;0;0;0;55;77;77;12;0;0;14;1;1;16;4;4;12;6;6;
0;0;0;0;55;77;77;12;0;0;14;1;1;16;4;4;12;6;6;
0;0;0;0;55;77;77;12;0;0;14;1;1;16;4;4;12;6;6;
0;0;0;0;55;77;77;12;0;0;14;1;1;16;4;4;12;6;6;
0;0;0;0;55;77;77;12;0;0;14;1;1;16;4;4;12;6;6;
0;0;0;0;55;77;77;12;0;0;14;1;1;16;4;4;12;6;6;
0;0;0;0;55;77;77;12;0;0;14;1;1;16;4;4;12;6;6;
0;0;0;0;55;77;77;12;0;0;14;1;1;16;4;4;12;6;6;
0;0;0;0;55;76;76;13;0;0;15;1;1;15;3;3;13;6;6;
0;0;0;0;53;75;75;14;0;0;16;2;2;15;4;4;15;7;7;
0;0;0;0;53;75;75;14;0;0;16;2;2;15;4;4;15;7;7;
0;0;0;0;47;73;73;16;1;1;18;4;4;18;7;7;18;11;11;
0;0;0;0;47;73;73;16;1;1;18;4;4;18;7;7;18;11;11;
0;0;0;0;47;73;73;16;1;1;18;4;4;18;7;7;18;11;11;
0;0;0;0;47;73;73;16;1;1;18;4;4;18;7;7;18;11;11;
0;0;0;0;48;74;74;15;1;1;17;3;3;17;7;7;17;10;10;
0;0;0;0;48;74;74;15;1;1;17;3;3;17;7;7;17;10;10;
0;0;0;0;48;74;74;15;1;1;17;3;3;17;7;7;17;10;10;
0;0;0;0;48;74;74;15;1;1;17;3;3;17;7;7;17;10;10;
0;0;0;0;48;74;74;15;1;1;17;3;3;17;7;7;17;10;10;
0;0;0;0;48;74;74;15;1;1;17;3;3;17;7;7;17;10;10;
0;0;0;0;48;74;74;15;1;1;17;3;3;17;7;7;17;10;10;
0;0;0;0;48;74;74;15;1;1;17;3;3;17;7;7;17;10;10;
0;0;0;0;48;74;74;15;1;1;17;3;3;17;7;7;17;10;10;
0;0;0;0;47;71;71;17;1;1;19;4;4;18;7;7;18;10;10;
0;0;0;0;47;71;71;17;1;1;19;4;4;18;7;7;18;10;10;
0;0;0;0;47;71;71;17;1;1;19;4;4;18;7;7;18;10;10;
0;0;0;0;47;71;71;17;1;1;19;4;4;18;7;7;18;10;10;
0;0;0;0;47;71;71;17;1;1;19;4;4;18;7;7;18;10;10;
0;0;0;0;47;71;71;17;1;1;19;4;4;18;7;7;18;10;10;
0;0;0;0;46;69;69;19;2;2;21;4;4;20;6;6;20;10;10;
0;0;0;0;46;69;69;19;2;2;21;4;4;20;6;6;20;10;10;
0;0;0;0;46;69;69;19;2;2;21;4;4;20;6;6;20;10;10;
0;0;0;0;46;69;69;19;2;2;21;4;4;20;6;6;20;10;10;
0;0;0;0;46;69;69;19;2;2;21;4;4;20;6;6;20;10;10;
0;0;0;0;46;69;69;19;2;2;21;4;4;20;6;6;20;10;10;
0;0;0;0;27;51;51;35;12;12;38;17;17;38;19;19;38;23;23;
0;0;0;0;27;51;51;35;12;12;38;17;17;38;19;19;38;23;23;
0;0;0;0;27;51;51;35;12;12;38;17;17;38;19;19;38;23;23;
0;0;0;0;27;51;51;35;12;12;38;17;17;38;19;19;38;23;23;
0;0;0;0;27;51;51;35;12;12;38;17;17;38;19;19;38;23;23;
0;0;0;0;13;39;39;48;25;25;51;31;31;52;35;35;53;40;40;
0;0;0;0;13;39;39;49;26;26;51;31;31;52;35;35;53;40;40;
0;0;0;0;13;39;39;49;26;26;51;31;31;52;35;35;53;40;40;
0;0;0;0;13;39;39;49;26;26;51;31;31;52;35;35;53;40;40;
0;0;0;0;13;39;39;49;26;26;51;31;31;52;35;35;53;40;40;
0;0;0;0;13;39;39;49;26;26;51;31;31;52;35;35;53;40;40;
0;0;0;0;13;39;39;49;26;26;51;31;31;52;35;35;53;40;40;
0;0;0;0;13;39;39;49;26;26;51;31;31;52;35;35;53;40;40;
0;0;0;0;13;39;39;49;26;26;51;31;31;52;35;35;53;40;40;
0;0;0;0;13;39;39;49;26;26;51;31;31;52;35;35;53;40;40;
0;0;0;0;13;39;39;49;26;26;51;31;31;52;35;35;53;40;40;
0;0;0;0;13;39;39;49;26;26;51;31;31;52;35;35;53;40;40;
0;0;0;0;13;39;39;49;26;26;51;31;31;52;35;35;53;40;40;
0;0;0;0;13;39;39;49;26;26;51;31;31;52;35;35;53;40;40;
0;0;0;0;13;39;39;49;26;26;51;31;31;52;35;35;53;40;40;
0;0;0;0;13;39;39;49;26;26;51;31;31;52;35;35;53;40;40;
0;0;0;0;13;39;39;49;26;26;51;31;31;52;35;35;53;40;40;
0;0;0;0;13;39;39;49;26;26;51;31;31;52;35;35;53;40;40;
0;0;0;0;12;37;37;51;27;27;53;32;32;54;35;35;55;40;40;
0;0;0;0;10;33;33;55;31;31;55;35;35;58;39;39;58;44;44;
0;0;0;0;10;33;33;55;31;31;55;35;35;58;39;39;58;44;44;
0;0;0;0;10;33;33;55;31;31;55;35;35;58;39;39;58;44;44;
0;0;0;0;10;33;33;55;31;31;55;35;35;58;39;39;58;44;44;
0;0;0;0;10;33;33;55;31;31;55;35;35;58;39;39;58;44;44;
0;0;0;0;10;33;33;55;31;31;55;35;35;58;39;39;58;44;44;
0;0;0;0;10;33;33;55;31;31;55;35;35;58;39;39;58;44;44;
0;0;0;0;10;33;33;55;31;31;55;35;35;58;39;39;58;44;44;
0;0;0;0;10;33;33;55;31;31;55;35;35;58;39;39;58;44;44;
0;0;0;0;10;33;33;55;31;31;55;35;35;58;39;39;58;44;44;
0;0;0;0;10;33;33;55;31;31;55;35;35;58;39;39;58;44;44;
0;0;0;0;10;33;33;55;31;31;55;35;35;58;39;39;58;44;44;
0;0;0;0;10;33;33;55;31;31;55;35;35;58;39;39;58;44;44;
0;0;0;0;10;33;33;55;31;31;55;35;35;58;39;39;58;44;44;
0;0;0;0;10;33;33;55;31;31;55;35;35;58;39;39;58;44;44;
0;0;0;0;10;33;33;55;31;31;55;35;35;58;39;39;58;44;44;
0;0;0;0;10;33;33;55;31;31;55;35;35;58;39;39;58;44;44;
0;0;0;0;10;33;33;55;31;31;55;35;35;58;39;39;58;44;44;
0;0;0;0;10;33;33;55;31;31;55;35;35;58;39;39;58;44;44;
0;0;0;0;10;33;33;55;31;31;55;35;35;58;39;39;58;44;44;
0;0;0;0;10;33;33;55;31;31;55;35;35;58;39;39;58;44;44;
0;0;0;0;10;33;33;55;31;31;55;35;35;58;39;39;58;44;44;
0;0;0;0;10;33;33;55;31;31;55;35;35;58;39;39;58;44;44;
0;0;0;0;10;33;33;55;31;31;55;35;35;58;39;39;58;44;44;
0;0;0;0;10;33;33;55;31;31;55;35;35;58;39;39;58;44;44;
0;0;0;0;10;33;33;55;31;31;55;35;35;58;39;39;58;44;44;
0;0;0;0;10;33;33;55;31;31;55;35;35;58;39;39;58;44;44;
0;0;0;0;10;33;33;55;31;31;55;35;35;58;39;39;58;44;44;
0;0;0;0;10;33;33;55;31;31;55;35;35;58;39;39;58;44;44;
0;0;0;0;10;37;37;51;29;29;51;33;33;55;38;38;56;44;44;
0;0;0;0;10;37;37;51;29;29;51;33;33;55;38;38;56;44;44;
0;0;0;0;10;37;37;51;29;29;51;33;33;55;38;38;56;44;44;
0;0;0;0;10;37;37;51;29;29;51;33;33;55;38;38;56;44;44;
0;0;0;0;10;37;37;51;29;29;51;33;33;55;38;38;56;44;44;
0;0;0;0;10;37;37;51;29;29;51;33;33;55;38;38;56;44;44;
0;0;0;0;10;37;37;51;29;29;51;33;33;55;38;38;56;44;44;
0;0;0;0;10;37;37;51;29;29;51;33;33;55;38;38;56;44;44;
0;0;0;0;10;37;37;51;29;29;51;33;33;55;38;38;56;44;44;
0;0;0;0;11;38;38;50;29;29;50;32;32;54;38;38;55;44;44;
0;0;0;0;11;38;38;50;29;29;50;32;32;54;38;38;55;44;44;
0;0;0;0;11;38;38;50;29;29;50;32;32;54;38;38;55;44;44;
0;0;0;0;11;38;38;50;29;29;50;32;32;54;38;38;55;44;44;
0;0;0;0;11;38;38;50;29;29;50;32;32;54;38;38;55;44;44;
0;0;0;0;11;38;38;50;29;29;50;32;32;54;38;38;55;44;44;
0;0;0;0;11;38;38;50;29;29;50;32;32;54;38;38;55;44;44;
0;0;0;0;11;38;38;50;29;29;50;32;32;54;38;38;55;44;44;
0;0;0;0;11;38;38;50;29;29;50;32;32;54;38;38;55;44;44;
0;0;0;0;11;38;38;50;29;29;50;32;32;54;38;38;55;44;44;
0;0;0;0;11;38;38;50;29;29;50;32;32;54;38;38;55;44;44;
0;0;0;0;11;38;38;50;29;29;50;32;32;54;38;38;55;44;44;
0;0;0;0;11;38;38;50;29;29;50;32;32;54;38;38;55;44;44;
0;0;0;0;11;38;38;50;29;29;50;32;32;54;38;38;55;44;44;
0;0;0;0;11;38;38;50;29;29;50;32;32;54;38;38;55;44;44;
0;0;0;0;11;38;38;50;29;29;50;32;32;54;38;38;55;44;44;
0;0;0;0;11;38;38;50;29;29;50;32;32;54;38;38;55;44;44;
0;0;0;0;11;38;38;50;29;29;50;32;32;54;38;38;55;44;44;
0;0;0;0;10;42;42;48;30;30;48;35;35;53;41;41;54;48;48;
0;0;0;0;10;42;42;48;30;30;48;35;35;53;41;41;54;48;48;
0;0;0;0;10;42;42;48;30;30;48;35;35;53;41;41;54;48;48;
0;0;0;0;11;45;45;45;29;29;46;34;34;51;41;41;52;47;47;
0;0;0;0;11;45;45;45;29;29;46;34;34;51;41;41;52;47;47;
0;0;0;0;11;45;45;45;29;29;46;34;34;51;41;41;52;47;47;
0;0;0;0;12;46;46;45;29;29;45;33;33;50;41;41;52;47;47;
0;0;0;0;12;46;46;45;29;29;45;33;33;50;41;41;52;47;47;
0;0;0;0;12;46;46;45;29;29;45;33;33;50;41;41;52;47;47;
0;0;0;0;12;46;46;45;29;29;45;33;33;50;41;41;52;47;47;
0;0;0;0;12;46;46;45;29;29;45;33;33;50;41;41;52;47;47;
0;0;0;0;12;46;46;45;29;29;45;33;33;50;41;41;52;47;47;
0;0;0;0;12;46;46;45;29;29;45;33;33;50;41;41;52;47;47;
0;0;0;0;12;46;46;45;29;29;45;33;33;50;41;41;52;47;47;
0;0;0;0;18;56;56;35;24;24;35;30;30;41;38;38;43;45;45;
0;0;0;0;18;56;56;35;24;24;35;30;30;41;38;38;43;45;45;
0;0;0;0;18;56;56;35;24;24;35;30;30;41;38;38;43;45;45;
0;0;0;0;18;56;56;35;24;24;35;30;30;41;38;38;43;45;45;
0;0;0;0;18;56;56;35;24;24;35;30;30;41;38;38;43;45;45;
0;0;0;0;18;56;56;35;24;24;35;30;30;41;38;38;43;45;45;
0;0;0;0;18;56;56;35;24;24;35;30;30;41;38;38;43;45;45;
0;0;0;0;18;56;56;35;24;24;35;30;30;41;38;38;43;45;45;
0;0;0;0;18;56;56;35;24;24;35;30;30;41;38;38;43;45;45;
0;0;0;0;18;56;56;35;24;24;35;30;30;41;38;38;43;45;45;
0;0;0;0;18;56;56;35;24;24;35;30;30;41;38;38;43;45;45;
0;0;0;0;18;56;56;35;24;24;35;30;30;41;38;38;43;45;45;
0;0;0;0;18;56;56;35;24;24;35;30;30;41;38;38;43;45;45;
0;0;0;0;18;56;56;35;24;24;35;30;30;41;38;38;43;45;45;
0;0;0;0;18;56;56;35;24;24;35;30;30;41;38;38;43;45;45;
0;0;0;0;18;56;56;35;24;24;35;30;30;41;38;38;43;45;45;
0;0;0;0;18;56;56;35;24;24;35;30;30;41;38;38;43;45;45;
0;0;0;0;18;56;56;35;24;24;35;30;30;41;38;38;43;45;45;
0;0;0;0;18;56;56;35;24;24;35;30;30;41;38;38;43;45;45;
0;0;0;0;18;56;56;35;24;24;35;30;30;41;38;38;43;45;45;
0;0;0;0;18;56;56;35;24;24;35;30;30;41;38;38;43;45;45;
0;0;0;0;18;56;56;35;24;24;35;30;30;41;38;38;43;45;45;
0;0;0;0;18;56;56;35;24;24;35;30;30;41;38;38;43;45;45;
0;0;0;0;18;56;56;35;24;24;35;30;30;41;38;38;43;45;45;
0;0;0;0;18;56;56;35;24;24;35;30;30;41;38;38;43;45;45;
0;0;0;0;18;56;56;35;24;24;35;30;30;41;38;38;43;45;45;
0;0;0;0;18;56;56;35;24;24;35;30;30;41;38;38;43;45;45;
0;0;0;0;18;56;56;35;24;24;35;30;30;41;38;38;43;45;45;
0;0;0;0;18;56;56;35;24;24;35;30;30;41;38;38;43;45;45;
0;0;0;0;18;56;56;35;24;24;35;30;30;41;38;38;43;45;45;
0;0;0;0;18;56;56;35;24;24;35;30;30;41;38;38;43;45;45;
0;0;0;0;18;56;56;35;24;24;35;30;30;41;38;38;43;45;45;
0;0;0;0;18;56;56;35;24;24;35;30;30;41;38;38;43;45;45;
0;0;0;0;18;56;56;35;24;24;35;30;30;41;38;38;43;45;45;
0;0;0;0;18;56;56;35;24;24;35;30;30;41;38;38;43;45;45;
0;0;0;0;18;56;56;35;24;24;35;30;30;41;38;38;43;45;45;
0;0;0;0;18;56;56;35;24;24;35;30;30;41;38;38;43;45;45;
0;0;0;0;18;56;56;35;24;24;35;30;30;41;38;38;43;45;45;
0;0;0;0;18;56;56;35;24;24;35;30;30;41;38;38;43;45;45;
0;0;0;0;18;56;56;35;24;24;35;30;30;41;38;38;43;45;45;
0;0;0;0;18;56;56;35;24;24;35;30;30;41;38;38;43;45;45;
0;0;0;0;18;56;56;35;24;24;35;30;30;41;38;38;43;45;45;
0;0;0;0;18;56;56;35;24;24;35;30;30;41;38;38;43;45;45;
0;0;0;0;18;56;56;35;24;24;35;30;30;41;38;38;43;45;45;
0;0;0;0;18;56;56;35;24;24;35;30;30;41;38;38;43;45;45;
0;0;0;0;18;56;56;35;24;24;35;30;30;41;38;38;43;45;45;
0;0;0;0;18;56;56;35;24;24;35;30;30;41;38;38;43;45;45;
0;0;0;0;18;56;56;35;24;24;35;30;30;41;38;38;43;45;45;
0;0;0;0;18;56;56;35;24;24;35;30;30;41;38;38;43;45;45;
0;0;0;0;18;56;56;35;24;24;35;30;30;41;38;38;43;45;45;
0;0;0;0;18;56;56;35;24;24;35;30;30;41;38;38;43;45;45;
0;0;0;0;18;56;56;35;24;24;35;30;30;41;38;38;43;45;45;
0;0;0;0;18;56;56;35;24;24;35;30;30;41;38;38;43;45;45;
0;0;0;0;18;56;56;35;24;24;35;30;30;41;38;38;43;45;45;
0;0;0;0;18;56;56;35;24;24;35;30;30;41;38;38;43;45;45;
0;0;0;0;18;56;56;35;24;24;35;30;30;41;38;38;43;45;45;
0;0;0;0;18;56;56;35;24;24;35;30;30;41;38;38;43;45;45;
0;0;0;0;18;56;56;35;24;24;35;30;30;41;38;38;43;45;45;
0;0;0;0;18;56;56;35;24;24;35;30;30;41;38;38;43;45;45;
0;0;0;0;18;56;56;35;24;24;35;30;30;41;38;38;43;45;45;
0;0;0;0;18;56;56;35;24;24;35;30;30;41;38;38;43;45;45;
0;0;0;0;18;56;56;35;24;24;35;30;30;41;38;38;43;45;45;
0;0;0;0;18;56;56;35;24;24;35;30;30;41;38;38;43;45;45;
0;0;0;0;18;56;56;35;24;24;35;30;30;41;38;38;43;45;45;
0;0;0;0;18;56;56;35;24;24;35;30;30;41;38;38;43;45;45;
0;0;0;0;18;56;56;35;24;24;35;30;30;41;38;38;43;45;45;
0;0;0;0;18;56;56;35;24;24;35;30;30;41;38;38;43;45;45;
0;0;0;0;18;56;56;35;24;24;35;30;30;41;38;38;43;45;45;
0;0;0;0;18;56;56;35;24;24;35;30;30;41;38;38;43;45;45;
0;0;0;0;18;56;56;35;24;24;35;30;30;41;38;38;43;45;45;
0;0;0;0;18;56;56;35;24;24;35;30;30;41;38;38;43;45;45;
0;0;0;0;18;56;56;35;24;24;35;30;30;41;38;38;43;45;45;
0;0;0;0;18;56;56;35;24;24;35;30;30;41;38;38;43;45;45;
0;0;0;0;43;66;66;25;4;4;25;6;6;23;8;8;22;12;12;
0;0;0;0;43;66;66;25;4;4;25;6;6;23;8;8;22;12;12;
0;0;0;0;43;66;66;25;4;4;25;6;6;23;8;8;22;12;12;
0;0;0;0;43;66;66;25;4;4;25;6;6;23;8;8;22;12;12;
0;0;0;0;43;66;66;25;4;4;25;6;6;23;8;8;22;12;12;
0;0;0;0;43;66;66;25;4;4;25;6;6;23;8;8;22;12;12;
0;0;0;0;43;66;66;25;4;4;25;6;6;23;8;8;22;12;12;
0;0;0;0;43;65;65;27;5;5;28;7;7;24;8;8;22;11;11;
0;0;0;0;58;90;90;6;4;4;7;6;6;7;12;12;8;20;20;
0;0;0;0;67;96;96;1;10;10;2;11;11;4;16;16;7;29;29;
0;0;0;0;67;96;96;1;10;10;2;11;11;4;16;16;7;29;29;
0;0;0;0;67;96;96;1;10;10;2;11;11;4;16;16;7;29;29;
0;0;0;0;67;96;96;1;10;10;2;11;11;4;16;16;7;29;29;
0;0;0;0;67;96;96;1;10;10;2;11;11;4;16;16;7;29;29;
0;0;0;0;67;96;96;1;10;10;2;11;11;4;16;16;7;29;29;
0;0;0;0;67;96;96;1;10;10;2;11;11;4;16;16;7;29;29;
0;0;0;0;67;96;96;1;10;10;2;11;11;4;16;16;7;29;29;
0;0;0;0;67;96;96;1;10;10;2;11;11;4;16;16;7;29;29;
0;0;0;0;67;96;96;1;10;10;2;11;11;4;16;16;7;29;29;
0;0;0;0;67;96;96;1;10;10;2;11;11;4;16;16;7;29;29;
0;0;0;0;67;96;96;1;10;10;2;11;11;4;16;16;7;29;29;
0;0;0;0;67;96;96;1;10;10;2;11;11;4;16;16;7;29;29;
0;0;0;0;67;96;96;1;10;10;2;11;11;4;16;16;7;29;29;
0;0;0;0;67;96;96;1;10;10;2;11;11;4;16;16;7;29;29;
0;0;0;0;67;96;96;1;10;10;2;11;11;4;16;16;7;29;29;
0;0;0;0;67;96;96;1;10;10;2;11;11;4;16;16;7;29;29;
0;0;0;0;67;96;96;1;10;10;2;11;11;4;16;16;7;29;29;
0;0;0;0;67;96;96;1;10;10;2;11;11;4;16;16;7;29;29;
0;0;0;0;67;96;96;1;10;10;2;11;11;4;16;16;7;29;29;
0;0;0;0;67;96;96;1;10;10;2;11;11;4;16;16;7;29;29;
0;0;0;0;67;96;96;1;10;10;2;11;11;4;16;16;7;29;29;
0;0;0;0;67;96;96;1;10;10;2;11;11;4;16;16;7;29;29;
0;0;0;0;67;96;96;1;10;10;2;11;11;4;16;16;7;29;29;
0;0;0;0;67;96;96;1;10;10;2;11;11;4;16;16;7;29;29;
0;0;0;0;67;96;96;1;10;10;2;11;11;4;16;16;7;29;29;
0;0;0;0;67;96;96;1;10;10;2;11;11;4;16;16;7;29;29;
0;0;0;0;67;96;96;1;10;10;2;11;11;4;16;16;7;29;29;
0;0;0;0;67;96;96;1;10;10;2;11;11;4;16;16;7;29;29;
0;0;0;0;67;96;96;1;10;10;2;11;11;4;16;16;7;29;29;
0;0;0;0;67;96;96;1;10;10;2;11;11;4;16;16;7;29;29;
0;0;0;0;67;96;96;1;10;10;2;11;11;4;16;16;7;29;29;
0;0;0;0;67;96;96;1;10;10;2;11;11;4;16;16;7;29;29;
0;0;0;0;67;96;96;1;10;10;2;11;11;4;16;16;7;29;29;
0;0;0;0;67;96;96;1;10;10;2;11;11;4;16;16;7;29;29;
0;0;0;0;67;96;96;1;10;10;2;11;11;4;16;16;7;29;29;
0;0;0;0;67;96;96;1;10;10;2;11;11;4;16;16;7;29;29;
0;0;0;0;67;96;96;1;10;10;2;11;11;4;16;16;7;29;29;
0;0;0;0;67;96;96;1;10;10;2;11;11;4;16;16;7;29;29;
0;0;0;0;67;96;96;1;10;10;2;11;11;4;16;16;7;29;29;
0;0;0;0;67;96;96;1;10;10;2;11;11;4;16;16;7;29;29;
0;0;0;0;67;96;96;1;10;10;2;11;11;4;16;16;7;29;29;
0;0;0;0;67;96;96;1;10;10;2;11;11;4;16;16;7;29;29;
0;0;0;0;67;96;96;1;10;10;2;11;11;4;16;16;7;29;29;
0;0;0;0;67;96;96;1;10;10;2;11;11;4;16;16;7;29;29;
0;0;0;0;67;96;96;1;10;10;2;11;11;4;16;16;7;29;29;
0;0;0;0;67;96;96;1;10;10;2;11;11;4;16;16;7;29;29;
0;0;0;0;67;96;96;1;10;10;2;11;11;4;16;16;7;29;29;
0;0;0;0;67;96;96;1;10;10;2;11;11;4;16;16;7;29;29;
0;0;0;0;67;96;96;1;10;10;2;11;11;4;16;16;7;29;29;
0;0;0;0;67;96;96;1;10;10;2;11;11;4;16;16;7;29;29;
0;0;0;0;67;96;96;1;10;10;2;11;11;4;16;16;7;29;29;
0;0;0;0;67;96;96;1;10;10;2;11;11;4;16;16;7;29;29;
0;0;0;0;73;98;98;0;13;13;0;12;12;2;16;16;7;30;30;
0;0;0;0;73;98;98;0;13;13;0;12;12;2;16;16;7;30;30;
0;0;0;0;73;98;98;0;13;13;0;12;12;2;16;16;7;30;30;
0;0;0;0;73;98;98;0;13;13;0;12;12;2;16;16;7;30;30;
0;0;0;0;73;98;98;0;13;13;0;12;12;2;16;16;7;30;30;
0;0;0;0;73;98;98;0;13;13;0;12;12;2;16;16;7;30;30;
0;0;0;0;73;98;98;0;13;13;0;12;12;2;16;16;7;30;30;
0;0;0;0;73;98;98;0;13;13;0;12;12;2;16;16;7;30;30;
0;0;0;0;73;98;98;0;13;13;0;12;12;2;16;16;7;30;30;
0;0;0;0;73;98;98;0;13;13;0;12;12;2;16;16;7;30;30;
0;0;0;0;73;98;98;0;13;13;0;12;12;2;16;16;7;30;30;
0;0;0;0;73;98;98;0;13;13;0;12;12;2;16;16;7;30;30;
0;0;0;0;73;98;98;0;13;13;0;12;12;2;16;16;7;30;30;
0;0;0;0;73;98;98;0;13;13;0;12;12;2;16;16;7;30;30;
0;0;0;0;73;98;98;0;13;13;0;12;12;2;16;16;7;30;30;
0;0;0;0;73;98;98;0;13;13;0;12;12;2;16;16;7;30;30;
0;0;0;0;73;98;98;0;13;13;0;12;12;2;16;16;7;30;30;
0;0;0;0;73;98;98;0;13;13;0;12;12;2;16;16;7;30;30;
0;0;0;0;73;98;98;0;13;13;0;12;12;2;16;16;7;30;30;
0;0;0;0;73;98;98;0;13;13;0;12;12;2;16;16;7;30;30;
0;0;0;0;73;98;98;0;13;13;0;12;12;2;16;16;7;30;30;
0;0;0;0;73;98;98;0;13;13;0;12;12;2;16;16;7;30;30;
0;0;0;0;73;98;98;0;13;13;0;12;12;2;16;16;7;30;30;
0;0;0;0;73;98;98;0;13;13;0;12;12;2;16;16;7;30;30;
0;0;0;0;81;99;99;0;16;16;0;13;13;0;14;14;5;28;28;
0;0;0;0;85;98;98;3;24;24;2;22;22;1;18;18;6;30;30;
0;0;0;0;85;98;98;3;24;24;2;22;22;1;18;18;6;30;30;
0;0;0;0;85;98;98;3;24;24;2;22;22;1;18;18;6;30;30;
0;0;0;0;85;98;98;3;24;24;2;22;22;1;18;18;6;30;30;
0;0;0;0;85;98;98;3;24;24;2;22;22;1;18;18;6;30;30;
0;0;0;0;85;98;98;3;24;24;2;22;22;1;18;18;6;30;30;
0;0;0;0;85;98;98;3;24;24;2;22;22;1;18;18;6;30;30;
0;0;0;0;85;98;98;3;24;24;2;22;22;1;18;18;6;30;30;
0;0;0;0;85;98;98;3;24;24;2;22;22;1;18;18;6;30;30;
0;0;0;0;85;98;98;3;24;24;2;22;22;1;18;18;6;30;30;
0;0;0;0;85;98;98;3;24;24;2;22;22;1;18;18;6;30;30;
0;0;0;0;85;98;98;3;24;24;2;22;22;1;18;18;6;30;30;
0;0;0;0;85;98;98;3;24;24;2;22;22;1;18;18;6;30;30;
0;0;0;0;85;98;98;3;24;24;2;22;22;1;18;18;6;30;30;
0;0;0;0;85;98;98;3;24;24;2;22;22;1;18;18;6;30;30;
0;0;0;0;85;98;98;3;24;24;2;22;22;1;18;18;6;30;30;
0;0;0;0;85;98;98;3;24;24;2;22;22;1;18;18;6;30;30;
0;0;0;0;85;98;98;3;24;24;2;22;22;1;18;18;6;30;30;
0;0;0;0;85;98;98;3;24;24;2;22;22;1;18;18;6;30;30;
0;0;0;0;85;98;98;3;24;24;2;22;22;1;18;18;6;30;30;
0;0;0;0;85;98;98;3;24;24;2;22;22;1;18;18;6;30;30;
0;0;0;0;85;98;98;3;24;24;2;22;22;1;18;18;6;30;30;
0;0;0;0;85;98;98;3;24;24;2;22;22;1;18;18;6;30;30;
0;0;0;0;85;98;98;3;24;24;2;22;22;1;18;18;6;30;30;
0;0;0;0;85;98;98;3;24;24;2;22;22;1;18;18;6;30;30;
0;0;0;0;85;98;98;3;24;24;2;22;22;1;18;18;6;30;30;
0;0;0;0;85;98;98;3;24;24;2;22;22;1;18;18;6;30;30;
0;0;0;0;85;98;98;3;24;24;2;22;22;1;18;18;6;30;30;
0;0;0;0;85;98;98;3;24;24;2;22;22;1;18;18;6;30;30;
0;0;0;0;85;98;98;3;24;24;2;22;22;1;18;18;6;30;30;
0;0;0;0;85;98;98;3;24;24;2;22;22;1;18;18;6;30;30;
0;0;0;0;85;98;98;3;24;24;2;22;22;1;18;18;6;30;30;
0;0;0;0;85;98;98;3;24;24;2;22;22;1;18;18;6;30;30;
0;0;0;0;85;98;98;3;24;24;2;22;22;1;18;18;6;30;30;
0;0;0;0;85;98;98;3;24;24;2;22;22;1;18;18;6;30;30;
0;0;0;0;85;98;98;3;24;24;2;22;22;1;18;18;6;30;30;
0;0;0;0;85;98;98;3;24;24;2;22;22;1;18;18;6;30;30;
0;0;0;0;85;98;98;3;24;24;2;22;22;1;18;18;6;30;30;
0;0;0;0;85;98;98;3;24;24;2;22;22;1;18;18;6;30;30;
0;0;0;0;85;98;98;3;24;24;2;22;22;1;18;18;6;30;30;
0;0;0;0;85;98;98;3;24;24;2;22;22;1;18;18;6;30;30;
0;0;0;0;85;98;98;3;24;24;2;22;22;1;18;18;6;30;30;
0;0;0;0;85;98;98;3;24;24;2;22;22;1;18;18;6;30;30;
0;0;0;0;85;98;98;3;24;24;2;22;22;1;18;18;6;30;30;
0;0;0;0;85;98;98;3;24;24;2;22;22;1;18;18;6;30;30;
0;0;0;0;85;98;98;3;24;24;2;22;22;1;18;18;6;30;30;
0;0;0;0;85;98;98;3;24;24;2;22;22;1;18;18;6;30;30;
0;0;0;0;85;98;98;3;24;24;2;22;22;1;18;18;6;30;30;
0;0;0;0;85;98;98;3;24;24;2;22;22;1;18;18;6;30;30;
0;0;0;0;85;98;98;3;24;24;2;22;22;1;18;18;6;30;30;
0;0;0;0;85;98;98;3;24;24;2;22;22;1;18;18;6;30;30;
0;0;0;0;85;98;98;3;24;24;2;22;22;1;18;18;6;30;30;
0;0;0;0;85;98;98;3;24;24;2;22;22;1;18;18;6;30;30;
0;0;0;0;85;98;98;3;24;24;2;22;22;1;18;18;6;30;30;
0;0;0;0;85;98;98;3;24;24;2;22;22;1;18;18;6;30;30;
0;0;0;0;85;98;98;3;24;24;2;22;22;1;18;18;6;30;30;
0;0;0;0;85;98;98;3;24;24;2;22;22;1;18;18;6;30;30;
0;0;0;0;85;98;98;3;24;24;2;22;22;1;18;18;6;30;30;
0;0;0;0;85;98;98;3;24;24;2;22;22;1;18;18;6;30;30;
0;0;0;0;85;98;98;3;24;24;2;22;22;1;18;18;6;30;30;
0;0;0;0;85;98;98;3;24;24;2;22;22;1;18;18;6;30;30;
0;0;0;0;85;98;98;3;24;24;2;22;22;1;18;18;6;30;30;
0;0;0;0;85;98;98;3;24;24;2;22;22;1;18;18;6;30;30;
0;0;0;0;85;98;98;4;27;27;3;24;24;2;21;21;6;31;31;
0;0;0;0;85;98;98;4;27;27;3;24;24;2;21;21;6;31;31;
0;0;0;0;85;98;98;4;27;27;3;24;24;2;21;21;6;31;31;
0;0;0;0;85;98;98;4;27;27;3;24;24;2;21;21;6;31;31;
0;0;0;0;85;98;98;4;27;27;3;24;24;2;21;21;6;31;31;
0;0;0;0;85;98;98;4;27;27;3;24;24;2;21;21;6;31;31;
0;0;0;0;85;98;98;4;27;27;3;24;24;2;21;21;6;31;31;
0;0;0;0;85;98;98;4;27;27;3;24;24;2;21;21;6;31;31;
0;0;0;0;85;98;98;4;27;27;3;24;24;2;21;21;6;31;31;
0;0;0;0;85;98;98;4;27;27;3;24;24;2;21;21;6;31;31;
0;0;0;0;85;98;98;4;27;27;3;24;24;2;21;21;6;31;31;
0;0;0;0;85;98;98;4;27;27;3;24;24;2;21;21;6;31;31;
0;0;0;0;90;96;96;5;31;31;3;24;24;2;21;21;6;31;31;
0;0;0;0;90;96;96;5;31;31;3;24;24;2;21;21;6;31;31;
0;0;0;0;90;96;96;5;31;31;3;24;24;2;21;21;6;31;31;
0;0;0;0;90;96;96;5;31;31;3;24;24;2;21;21;6;31;31;
0;0;0;0;90;96;96;5;31;31;3;24;24;2;21;21;6;31;31;
0;0;0;0;90;96;96;5;31;31;3;24;24;2;21;21;6;31;31;
0;0;0;0;90;96;96;5;31;31;3;24;24;2;21;21;6;31;31;
0;0;0;0;90;96;96;5;31;31;3;24;24;2;21;21;6;31;31;
0;0;0;0;90;96;96;5;31;31;3;24;24;2;21;21;6;31;31;
0;0;0;0;90;96;96;5;31;31;3;24;24;2;21;21;6;31;31;
0;0;0;0;90;96;96;5;31;31;3;24;24;2;21;21;6;31;31;
0;0;0;0;90;96;96;5;31;31;3;24;24;2;21;21;6;31;31;
0;0;0;0;90;96;96;5;31;31;3;24;24;2;21;21;6;31;31;
0;0;0;0;94;94;94;12;44;44;4;24;24;3;20;20;7;30;30;
0;0;0;0;94;94;94;12;44;44;4;24;24;3;20;20;7;30;30;
0;0;0;0;94;94;94;12;44;44;4;24;24;3;20;20;7;30;30;
0;0;0;0;94;94;94;12;44;44;4;24;24;3;20;20;7;30;30;
0;0;0;0;94;94;94;12;44;44;4;24;24;3;20;20;7;30;30;
0;0;0;0;94;94;94;12;44;44;4;24;24;3;20;20;7;30;30;
0;0;0;0;94;94;94;12;44;44;4;24;24;3;20;20;7;30;30;
0;0;0;0;94;94;94;12;44;44;4;24;24;3;20;20;7;30;30;
0;0;0;0;94;95;95;14;48;48;4;22;22;3;19;19;6;28;28;
0;0;0;0;94;95;95;14;48;48;4;22;22;3;19;19;6;28;28;
0;0;0;0;94;95;95;14;48;48;4;22;22;3;19;19;6;28;28;
0;0;0;0;94;95;95;14;48;48;4;22;22;3;19;19;6;28;28;
0;0;0;0;94;95;95;14;48;48;4;22;22;3;19;19;6;28;28;
0;0;0;0;94;95;95;14;48;48;4;22;22;3;19;19;6;28;28;
0;0;0;0;96;94;94;17;52;52;4;21;21;3;19;19;5;26;26;
0;0;0;0;96;94;94;17;52;52;4;21;21;3;19;19;5;26;26;
0;0;0;0;96;94;94;17;52;52;4;21;21;3;19;19;5;26;26;
0;0;0;0;96;94;94;17;52;52;4;21;21;3;19;19;5;26;26;
0;0;0;0;96;94;94;17;52;52;4;21;21;3;19;19;5;26;26;
0;0;0;0;96;94;94;17;52;52;4;21;21;3;19;19;5;26;26;
0;0;0;0;96;94;94;17;52;52;4;21;21;3;19;19;5;26;26;
0;0;0;0;96;94;94;17;52;52;4;21;21;3;19;19;5;26;26;
0;0;0;0;96;94;94;17;52;52;4;21;21;3;19;19;5;26;26;
0;0;0;0;96;94;94;17;52;52;4;21;21;3;19;19;5;26;26;
0;0;0;0;96;94;94;17;52;52;4;21;21;3;19;19;5;26;26;
0;0;0;0;96;94;94;17;52;52;4;21;21;3;19;19;5;26;26;
0;0;0;0;96;94;94;17;52;52;4;21;21;3;19;19;5;26;26;
0;0;0;0;96;94;94;17;52;52;4;21;21;3;19;19;5;26;26;
0;0;0;0;96;94;94;17;52;52;4;21;21;3;19;19;5;26;26;
0;0;0;0;96;94;94;17;52;52;4;21;21;3;19;19;5;26;26;
0;0;0;0;96;94;94;17;52;52;4;21;21;3;19;19;5;26;26;
0;0;0;0;96;94;94;17;52;52;4;21;21;3;19;19;5;26;26;
0;0;0;0;96;94;94;17;52;52;4;21;21;3;19;19;5;26;26;
0;0;0;0;96;94;94;17;52;52;4;21;21;3;19;19;5;26;26;
0;0;0;0;96;94;94;17;52;52;4;21;21;3;19;19;5;26;26;
0;0;0;0;96;94;94;17;52;52;4;21;21;3;19;19;5;26;26;
0;0;0;0;96;94;94;17;52;52;4;21;21;3;19;19;5;26;26;
0;0;0;0;96;94;94;17;52;52;4;21;21;3;19;19;5;26;26;
0;0;0;0;96;94;94;17;52;52;4;21;21;3;19;19;5;26;26;
0;0;0;0;96;94;94;17;52;52;4;21;21;3;19;19;5;26;26;
0;0;0;0;96;94;94;17;52;52;4;21;21;3;19;19;5;26;26;
0;0;0;0;96;94;94;17;52;52;4;21;21;3;19;19;5;26;26;
0;0;0;0;96;94;94;17;52;52;4;21;21;3;19;19;5;26;26;
0;0;0;0;96;94;94;17;52;52;4;21;21;3;19;19;5;26;26;
0;0;0;0;96;94;94;17;52;52;4;21;21;3;19;19;5;26;26;
0;0;0;0;97;94;94;20;56;56;4;20;20;3;18;18;4;22;22;
0;0;0;0;99;94;94;17;50;50;3;13;13;1;11;11;1;13;13;
0;0;0;0;99;94;94;17;50;50;3;13;13;1;11;11;1;13;13;
0;0;0;0;99;94;94;17;50;50;3;13;13;1;11;11;1;13;13;
0;0;0;0;99;94;94;17;50;50;3;13;13;1;11;11;1;13;13;
0;0;0;0;99;94;94;17;50;50;3;13;13;1;11;11;1;13;13;
0;0;0;0;99;94;94;17;50;50;3;13;13;1;11;11;1;13;13;
0;0;0;0;99;94;94;17;50;50;3;13;13;1;11;11;1;13;13;
0;0;0;0;99;94;94;17;50;50;3;13;13;1;11;11;1;13;13;
0;0;0;0;99;94;94;17;50;50;3;13;13;1;11;11;1;13;13;
0;0;0;0;99;94;94;17;50;50;3;13;13;1;11;11;1;13;13;
0;0;0;0;99;94;94;17;50;50;3;13;13;1;11;11;1;13;13;
0;0;0;0;99;94;94;17;50;50;3;13;13;1;11;11;1;13;13;
0;0;0;0;99;94;94;17;50;50;3;13;13;1;11;11;1;13;13;
0;0;0;0;99;94;94;17;50;50;3;13;13;1;11;11;1;13;13;
0;0;0;0;99;94;94;17;50;50;3;13;13;1;11;11;1;13;13;
0;0;0;0;99;94;94;17;50;50;3;13;13;1;11;11;1;13;13;
0;0;0;0;99;94;94;17;50;50;3;13;13;1;11;11;1;13;13;
0;0;0;0;99;94;94;17;50;50;3;13;13;1;11;11;1;13;13;
0;0;0;0;99;94;94;17;50;50;3;13;13;1;11;11;1;13;13;
0;0;0;0;99;94;94;17;50;50;3;13;13;1;11;11;1;13;13;
0;0;0;0;99;94;94;17;50;50;3;13;13;1;11;11;1;13;13;
0;0;0;0;99;94;94;17;50;50;3;13;13;1;11;11;1;13;13;
0;0;0;0;99;94;94;17;50;50;3;13;13;1;11;11;1;13;13;
0;0;0;0;99;94;94;17;50;50;3;13;13;1;11;11;1;13;13;
0;0;0;0;99;94;94;17;50;50;3;13;13;1;11;11;1;13;13;
0;0;0;0;99;94;94;17;50;50;3;13;13;1;11;11;1;13;13;
0;0;0;0;98;95;95;12;44;44;1;8;8;0;7;7;0;9;9;
0;0;0;0;98;95;95;12;44;44;1;8;8;0;7;7;0;9;9;
0;0;0;0;98;95;95;12;44;44;1;8;8;0;7;7;0;9;9;
0;0;0;0;98;95;95;12;44;44;1;8;8;0;7;7;0;9;9;
0;0;0;0;98;95;95;12;44;44;1;8;8;0;7;7;0;9;9;
0;0;0;0;98;95;95;12;44;44;1;8;8;0;7;7;0;9;9;
0;0;0;0;98;95;95;12;44;44;1;8;8;0;7;7;0;9;9;
0;0;0;0;98;95;95;12;44;44;1;8;8;0;7;7;0;9;9;
0;0;0;0;98;95;95;12;44;44;1;8;8;0;7;7;0;9;9;
0;0;0;0;98;95;95;12;44;44;1;8;8;0;7;7;0;9;9;
0;0;0;0;98;95;95;12;44;44;1;8;8;0;7;7;0;9;9;
0;0;0;0;98;95;95;12;44;44;1;8;8;0;7;7;0;9;9;
0;0;0;0;98;95;95;12;44;44;1;8;8;0;7;7;0;9;9;
0;0;0;0;98;95;95;12;44;44;1;8;8;0;7;7;0;9;9;
0;0;0;0;98;95;95;12;44;44;1;8;8;0;7;7;0;9;9;
0;0;0;0;98;95;95;12;44;44;1;8;8;0;7;7;0;9;9;
0;0;0;0;98;95;95;12;44;44;1;8;8;0;7;7;0;9;9;
0;0;0;0;98;95;95;12;44;44;1;8;8;0;7;7;0;9;9;
0;0;0;0;98;95;95;12;44;44;1;8;8;0;7;7;0;9;9;
0;0;0;0;98;95;95;12;44;44;1;8;8;0;7;7;0;9;9;
0;0;3;0;98;95;95;12;44;44;1;8;8;0;7;7;0;9;9;
0;0;0;0;98;95;95;12;44;44;1;8;8;0;7;7;0;9;9;
0;0;0;0;98;95;95;12;44;44;1;8;8;0;7;7;0;9;9;
0;0;0;0;98;95;95;12;44;44;1;8;8;0;7;7;0;9;9;
0;0;0;0;98;95;95;12;44;44;1;8;8;0;7;7;0;9;9;
0;0;0;0;98;95;95;12;44;44;1;8;8;0;7;7;0;9;9;
0;0;0;0;98;95;95;12;44;44;1;8;8;0;7;7;0;9;9;
0;0;0;0;98;95;95;12;44;44;1;8;8;0;7;7;0;9;9;
0;0;0;0;98;95;95;12;44;44;1;8;8;0;7;7;0;9;9;
0;0;0;0;98;95;95;12;44;44;1;8;8;0;7;7;0;9;9;
0;0;0;0;98;95;95;12;44;44;1;8;8;0;7;7;0;9;9;
0;0;0;0;98;95;95;12;44;44;1;8;8;0;7;7;0;9;9;
0;0;0;0;98;95;95;12;44;44;1;8;8;0;7;7;0;9;9;
0;0;0;0;98;95;95;12;44;44;1;8;8;0;7;7;0;9;9;
0;0;0;0;98;95;95;12;44;44;1;8;8;0;7;7;0;9;9;
0;0;0;0;98;95;95;12;44;44;1;8;8;0;7;7;0;9;9;
0;0;0;0;98;95;95;12;44;44;1;8;8;0;7;7;0;9;9;
0;0;0;0;98;95;95;12;44;44;1;8;8;0;7;7;0;9;9;
0;0;0;0;98;95;95;12;44;44;1;8;8;0;7;7;0;9;9;
0;0;0;0;98;95;95;12;44;44;1;8;8;0;7;7;0;9;9;
0;0;0;0;98;95;95;12;44;44;1;8;8;0;7;7;0;9;9;
0;0;0;0;98;95;95;12;44;44;1;8;8;0;7;7;0;9;9;
0;0;0;0;98;95;95;12;44;44;1;8;8;0;7;7;0;9;9;
0;0;0;0;98;95;95;12;44;44;1;8;8;0;7;7;0;9;9;
0;0;0;0;98;95;95;12;44;44;1;8;8;0;7;7;0;9;9;
0;0;0;0;98;95;95;12;44;44;1;8;8;0;7;7;0;9;9;
0;0;0;0;98;95;95;12;44;44;1;8;8;0;7;7;0;9;9;
0;0;0;0;98;95;95;12;44;44;1;8;8;0;7;7;0;9;9;
0;0;0;0;98;95;95;12;44;44;1;8;8;0;7;7;0;9;9;
0;0;0;0;98;95;95;12;44;44;1;8;8;0;7;7;0;9;9;
0;0;0;0;98;95;95;12;44;44;1;8;8;0;7;7;0;9;9;
0;0;0;0;98;95;95;12;44;44;1;8;8;0;7;7;0;9;9;
0;0;0;0;98;95;95;12;44;44;1;8;8;0;7;7;0;9;9;
0;0;0;0;75;87;87;77;80;80;77;77;77;76;76;76;78;77;77;
0;0;0;0;74;86;86;76;79;79;76;77;77;76;76;76;76;76;76;
0;0;0;0;75;86;86;78;80;80;76;77;77;77;77;77;77;76;76;
0;0;0;0;75;86;86;78;80;80;76;77;77;77;77;77;77;76;76;
0;0;0;0;75;86;86;78;80;80;76;77;77;77;77;77;77;76;76;
0;0;0;0;75;86;86;78;80;80;76;77;77;77;77;77;77;76;76;
0;0;0;0;75;86;86;78;80;80;76;77;77;77;77;77;77;76;76;
0;0;0;0;75;86;86;78;80;80;76;77;77;77;77;77;77;76;76;
0;0;0;0;75;86;86;78;80;80;76;77;77;77;77;77;77;76;76;
0;0;0;0;75;86;86;78;80;80;76;77;77;77;77;77;77;76;76;
0;0;0;0;75;86;86;78;80;80;76;77;77;77;77;77;77;76;76;
0;0;0;0;75;86;86;78;80;80;76;77;77;77;77;77;77;76;76;
0;0;0;0;75;86;86;78;80;80;76;77;77;77;77;77;77;76;76;
0;0;0;0;75;86;86;78;80;80;76;77;77;77;77;77;77;76;76;
0;0;0;0;75;86;86;78;80;80;76;77;77;77;77;77;77;76;76;
0;0;0;0;75;86;86;78;80;80;76;77;77;77;77;77;77;76;76;
0;0;0;0;75;86;86;78;80;80;76;77;77;77;77;77;77;76;76;
0;0;0;0;75;86;86;78;80;80;76;77;77;77;77;77;77;76;76;
0;0;0;0;75;86;86;78;80;80;76;77;77;77;77;77;77;76;76;
0;0;0;0;75;86;86;78;80;80;76;77;77;77;77;77;77;76;76;
0;0;0;0;75;86;86;78;80;80;76;77;77;77;77;77;77;76;76;
0;0;0;0;75;86;86;78;80;80;76;77;77;77;77;77;77;76;76;
0;0;0;0;75;86;86;78;80;80;76;77;77;77;77;77;77;76;76;
0;0;0;0;75;86;86;78;80;80;76;77;77;77;77;77;77;76;76;
0;0;0;0;75;86;86;78;80;80;76;77;77;77;77;77;77;76;76;
0;0;0;0;75;86;86;78;80;80;76;77;77;77;77;77;77;76;76;
0;0;0;0;75;86;86;78;80;80;76;77;77;77;77;77;77;76;76;
0;0;0;0;75;86;86;78;80;80;76;77;77;77;77;77;77;76;76;
0;0;0;0;75;86;86;78;80;80;76;77;77;77;77;77;77;76;76;
0;0;0;0;75;86;86;78;80;80;76;77;77;77;77;77;77;76;76;
0;0;0;0;75;86;86;78;80;80;76;77;77;77;77;77;77;76;76;
0;0;0;0;75;86;86;78;80;80;76;77;77;77;77;77;77;76;76;
0;0;0;0;75;86;86;78;80;80;76;77;77;77;77;77;77;76;76;
0;0;0;0;75;86;86;78;80;80;76;77;77;77;77;77;77;76;76;
0;0;0;0;75;86;86;78;80;80;76;77;77;77;77;77;77;76;76;
0;0;0;0;75;86;86;78;80;80;76;77;77;77;77;77;77;76;76;
0;0;0;0;75;86;86;78;80;80;76;77;77;77;77;77;77;76;76;
0;0;0;0;75;86;86;78;80;80;76;77;77;77;77;77;77;76;76;
0;0;0;0;75;86;86;78;80;80;76;77;77;77;77;77;77;76;76;
0;0;0;0;75;86;86;78;80;80;76;77;77;77;77;77;77;76;76;
0;0;0;0;75;86;86;78;80;80;76;77;77;77;77;77;77;76;76;
0;0;0;0;75;86;86;78;80;80;76;77;77;77;77;77;77;76;76;
0;0;0;0;75;86;86;78;80;80;76;77;77;77;77;77;77;76;76;
0;0;0;0;75;86;86;78;80;80;76;77;77;77;77;77;77;76;76;
0;0;0;0;75;86;86;78;80;80;76;77;77;77;77;77;77;76;76;
0;0;0;0;75;86;86;78;80;80;76;77;77;77;77;77;77;76;76;
0;0;0;0;75;86;86;78;80;80;76;77;77;77;77;77;77;76;76;
0;0;0;0;75;86;86;78;80;80;76;77;77;77;77;77;77;76;76;
0;0;0;0;75;86;86;78;80;80;76;77;77;77;77;77;77;76;76;
0;0;0;0;75;86;86;78;80;80;76;77;77;77;77;77;77;76;76;
0;0;0;0;75;86;86;78;80;80;76;77;77;77;77;77;77;76;76;
0;0;0;0;75;86;86;78;80;80;76;77;77;77;77;77;77;76;76;
0;0;0;0;75;86;86;78;80;80;76;77;77;77;77;77;77;76;76;
0;0;0;0;75;86;86;78;80;80;76;77;77;77;77;77;77;76;76;
0;0;0;0;75;86;86;78;80;80;76;77;77;77;77;77;77;76;76;
0;0;0;0;75;86;86;78;80;80;76;77;77;77;77;77;77;76;76;
0;0;0;0;75;86;86;78;80;80;76;77;77;77;77;77;77;76;76;
0;0;0;0;75;86;86;78;80;80;76;77;77;77;77;77;77;76;76;
0;0;0;0;75;86;86;78;80;80;76;77;77;77;77;77;77;76;76;
0;0;0;0;75;86;86;78;80;80;76;77;77;77;77;77;77;76;76;
0;0;0;0;75;86;86;78;80;80;76;77;77;77;77;77;77;76;76;
0;0;0;0;75;86;86;78;80;80;76;77;77;77;77;77;77;76;76;
0;0;0;0;75;86;86;78;80;80;76;77;77;77;77;77;77;76;76;
0;0;0;0;75;86;86;78;80;80;76;77;77;77;77;77;77;76;76;
0;0;0;0;75;86;86;78;80;80;76;77;77;77;77;77;77;76;76;
0;0;0;0;75;86;86;78;80;80;76;77;77;77;77;77;77;76;76;
0;0;0;0;75;86;86;78;80;80;76;77;77;77;77;77;77;76;76;
0;0;0;0;75;86;86;78;80;80;76;77;77;77;77;77;77;76;76;
0;0;0;0;75;86;86;78;80;80;76;77;77;77;77;77;77;76;76;
0;0;0;0;75;86;86;78;80;80;76;77;77;77;77;77;77;76;76;
0;0;0;0;75;86;86;78;80;80;76;77;77;77;77;77;77;76;76;
0;0;0;0;75;86;86;78;80;80;76;77;77;77;77;77;77;76;76;
0;0;0;0;75;86;86;78;80;80;76;77;77;77;77;77;77;76;76;
0;0;0;0;75;86;86;78;80;80;76;77;77;77;77;77;77;76;76;
0;0;0;0;75;86;86;78;80;80;76;77;77;77;77;77;77;76;76;
0;0;0;0;75;86;86;78;80;80;76;77;77;77;77;77;77;76;76;
0;0;0;0;75;86;86;78;80;80;76;77;77;77;77;77;77;76;76;
0;0;0;0;75;86;86;78;80;80;76;77;77;77;77;77;77;76;76;
0;0;0;0;75;86;86;78;80;80;76;77;77;77;77;77;77;76;76;
0;0;0;0;75;86;86;78;80;80;76;77;77;77;77;77;77;76;76;
0;0;0;0;75;86;86;78;80;80;76;77;77;77;77;77;77;76;76;
0;0;0;0;75;86;86;78;80;80;76;77;77;77;77;77;77;76;76;
0;0;0;0;75;86;86;78;80;80;76;77;77;78;78;78;76;75;75;
0;0;0;0;75;86;86;78;80;80;76;77;77;78;78;78;76;75;75;
0;0;0;0;75;86;86;78;80;80;76;77;77;78;78;78;76;75;75;
0;0;0;0;75;86;86;78;80;80;76;77;77;78;78;78;76;75;75;
0;0;0;0;75;86;86;78;80;80;76;77;77;78;78;78;76;75;75;
0;0;0;0;75;86;86;78;80;80;76;77;77;78;78;78;76;75;75;
0;0;0;0;75;86;86;78;80;80;76;77;77;78;78;78;76;75;75;
0;0;0;0;75;86;86;78;80;80;76;77;77;78;78;78;76;75;75;
0;0;0;0;76;85;85;80;82;82;77;77;77;80;79;79;76;75;75;
0;0;0;0;76;85;85;80;82;82;77;77;77;80;79;79;76;75;75;
0;0;0;0;76;85;85;80;82;82;77;77;77;80;79;79;76;75;75;
0;0;0;0;76;85;85;80;82;82;77;77;77;80;79;79;76;75;75;
0;0;0;0;76;85;85;80;82;82;77;77;77;80;79;79;76;75;75;
0;0;0;0;76;85;85;80;82;82;77;77;77;80;79;79;76;75;75;
0;0;0;0;76;85;85;80;82;82;77;77;77;80;79;79;76;75;75;
0;0;0;0;76;85;85;80;82;82;77;77;77;80;79;79;76;75;75;
0;0;0;0;76;85;85;80;82;82;77;77;77;80;79;79;76;75;75;
0;0;0;0;76;85;85;80;82;82;77;77;77;80;79;79;76;75;75;
0;0;0;0;77;85;85;80;82;82;77;78;78;80;80;80;77;76;76;
0;0;0;0;77;85;85;80;82;82;77;78;78;80;80;80;77;76;76;
0;0;0;0;77;85;85;80;82;82;77;78;78;80;80;80;77;76;76;
0;0;0;0;77;85;85;81;82;82;78;78;78;80;80;80;77;76;76;
0;0;0;0;77;85;85;81;82;82;78;78;78;80;80;80;77;76;76;
0;0;0;0;77;85;85;81;82;82;78;78;78;80;80;80;77;76;76;
0;0;0;0;77;85;85;81;82;82;78;78;78;80;80;80;77;76;76;
0;0;0;0;77;85;85;81;82;82;78;78;78;80;80;80;77;76;76;
0;0;0;0;77;85;85;81;82;82;78;78;78;80;80;80;77;76;76;
0;0;0;0;77;85;85;81;82;82;78;78;78;80;80;80;77;76;76;
0;0;0;0;77;85;85;81;82;82;78;78;78;80;80;80;77;76;76;
0;0;0;0;77;85;85;81;82;82;78;78;78;80;80;80;77;76;76;
0;0;0;0;77;85;85;81;82;82;78;78;78;80;80;80;77;76;76;
0;0;0;0;77;85;85;81;82;82;78;78;78;80;80;80;77;76;76;
0;0;0;0;77;85;85;81;82;82;78;78;78;80;80;80;77;76;76;
0;0;0;0;77;85;85;81;82;82;78;78;78;80;80;80;77;76;76;
0;0;0;0;77;85;85;81;82;82;78;78;78;80;80;80;77;76;76;
0;0;0;0;77;85;85;81;82;82;78;78;78;80;80;80;77;76;76;
0;0;0;0;77;85;85;81;82;82;78;78;78;80;80;80;77;76;76;
0;0;0;0;77;85;85;81;82;82;78;78;78;80;80;80;77;76;76;
0;0;0;0;77;85;85;81;82;82;78;78;78;80;80;80;77;76;76;
0;0;0;0;77;85;85;81;82;82;78;78;78;80;80;80;77;76;76;
0;0;0;0;77;85;85;81;82;82;78;78;78;80;80;80;77;76;76;
0;0;0;0;77;85;85;81;82;82;78;78;78;80;80;80;77;76;76;
0;0;0;0;77;85;85;81;82;82;78;78;78;80;80;80;77;76;76;
0;0;0;0;77;85;85;81;82;82;78;78;78;80;80;80;77;76;76;
0;0;0;0;77;85;85;81;82;82;78;78;78;80;80;80;77;76;76;
0;0;0;0;77;85;85;81;82;82;78;78;78;80;80;80;77;76;76;
0;0;0;0;77;85;85;81;83;83;78;78;78;80;80;80;77;76;76;
0;0;0;0;77;85;85;81;83;83;78;78;78;80;80;80;77;76;76;
0;0;0;0;77;85;85;81;83;83;78;78;78;80;80;80;77;76;76;
0;0;0;0;77;85;85;81;83;83;78;78;78;80;80;80;77;76;76;
0;0;0;0;77;85;85;81;83;83;78;78;78;80;80;80;77;76;76;
0;0;0;0;77;85;85;81;83;83;78;78;78;80;80;80;77;76;76;
0;0;0;0;77;85;85;81;83;83;78;78;78;80;80;80;77;76;76;
0;0;0;0;77;85;85;81;83;83;78;78;78;80;80;80;77;76;76;
0;0;0;0;77;85;85;81;83;83;78;78;78;80;80;80;77;76;76;
0;0;0;0;77;85;85;81;83;83;78;78;78;80;80;80;77;76;76;
0;0;0;0;77;85;85;81;83;83;78;78;78;80;80;80;77;76;76;
0;0;0;0;77;85;85;81;83;83;78;78;78;80;80;80;77;76;76;
0;0;0;0;77;85;85;81;83;83;78;78;78;80;80;80;77;76;76;
0;0;0;0;77;85;85;81;83;83;78;78;78;80;80;80;77;76;76;
0;0;0;0;77;85;85;81;83;83;78;78;78;80;80;80;77;76;76;
0;0;0;0;77;85;85;81;83;83;78;78;78;80;80;80;77;76;76;
0;0;0;0;77;85;85;81;83;83;78;78;78;80;80;80;77;76;76;
0;0;0;0;77;85;85;81;83;83;78;78;78;80;80;80;77;76;76;
0;0;0;0;77;85;85;81;83;83;78;78;78;80;80;80;77;76;76;
0;0;0;0;77;85;85;81;83;83;78;78;78;80;80;80;77;76;76;
0;0;0;0;77;85;85;81;83;83;78;78;78;80;80;80;77;76;76;
0;0;0;0;77;85;85;81;83;83;78;78;78;80;80;80;77;76;76;
0;0;0;0;77;85;85;81;83;83;78;78;78;80;80;80;77;76;76;
0;0;0;0;77;85;85;81;83;83;78;78;78;80;80;80;77;76;76;
0;0;0;0;77;85;85;81;83;83;78;78;78;80;80;80;77;76;76;
0;0;0;0;77;85;85;81;83;83;78;78;78;80;80;80;77;76;76;
0;0;0;0;78;85;85;81;83;83;78;78;78;80;80;80;78;77;77;
0;0;0;0;79;85;85;81;83;83;78;78;78;80;80;80;78;76;76;
0;0;0;0;79;85;85;81;83;83;78;78;78;80;80;80;78;76;76;
0;0;0;0;79;85;85;81;83;83;78;78;78;80;80;80;78;76;76;
0;0;0;0;79;85;85;81;83;83;78;78;78;80;80;80;78;76;76;
0;0;0;0;79;85;85;81;83;83;78;78;78;80;80;80;78;76;76;
0;0;0;0;79;85;85;81;83;83;78;78;78;80;80;80;78;76;76;
0;0;0;0;79;85;85;81;83;83;78;78;78;80;80;80;78;76;76;
0;0;0;0;79;85;85;81;83;83;78;78;78;80;80;80;78;76;76;
0;0;0;0;79;85;85;81;83;83;78;78;78;80;80;80;78;76;76;
0;0;0;0;79;85;85;81;83;83;78;78;78;80;80;80;78;76;76;
0;0;0;0;79;85;85;81;83;83;78;78;78;80;80;80;78;76;76;
0;0;0;0;79;85;85;81;83;83;78;78;78;80;80;80;78;76;76;
0;0;0;0;79;85;85;81;83;83;78;78;78;80;80;80;78;76;76;
0;0;0;0;79;85;85;81;83;83;78;78;78;80;80;80;78;76;76;
0;0;0;0;79;85;85;81;83;83;78;78;78;80;80;80;78;76;76;
0;0;0;0;79;85;85;81;83;83;78;78;78;80;80;80;78;76;76;
0;0;0;0;79;85;85;81;83;83;78;78;78;80;80;80;78;76;76;
0;0;0;0;79;85;85;81;83;83;78;78;78;80;80;80;78;76;76;
0;0;0;0;79;85;85;81;83;83;78;78;78;80;80;80;78;76;76;
0;0;0;0;79;85;85;81;83;83;78;78;78;80;80;80;78;76;76;
0;0;0;0;79;85;85;81;83;83;78;78;78;80;80;80;78;76;76;
0;0;0;0;79;85;85;81;83;83;78;78;78;80;80;80;78;76;76;
0;0;0;0;79;85;85;81;83;83;78;78;78;80;80;80;77;76;76;
0;0;0;0;79;85;85;81;83;83;78;78;78;80;80;80;77;76;76;
0;0;0;0;79;85;85;81;83;83;78;78;78;80;80;80;77;76;76;
0;0;0;0;79;85;85;81;83;83;78;78;78;80;80;80;77;76;76;
0;0;0;0;79;85;85;81;83;83;78;78;78;80;80;80;77;76;76;
0;0;0;0;79;85;85;81;83;83;78;78;78;80;80;80;77;76;76;
0;0;0;0;79;85;85;81;83;83;78;78;78;80;80;80;77;76;76;
0;0;0;0;79;85;85;81;83;83;78;78;78;80;80;80;77;76;76;
0;0;0;0;79;85;85;81;83;83;78;78;78;80;80;80;77;76;76;
0;0;0;0;79;85;85;81;83;83;78;78;78;80;80;80;77;76;76;
0;0;0;0;79;85;85;81;83;83;78;78;78;80;80;80;77;76;76;
0;0;0;0;79;85;85;81;83;83;78;78;78;80;80;80;77;76;76;
0;0;0;0;79;85;85;81;83;83;78;78;78;80;80;80;77;76;76;
0;0;0;0;79;85;85;81;83;83;78;78;78;80;80;80;77;76;76;
0;0;0;0;79;85;85;81;83;83;78;78;78;80;80;80;77;76;76;
0;0;0;0;79;85;85;81;83;83;78;78;78;80;80;80;77;76;76;
0;0;0;0;79;85;85;81;83;83;78;78;78;80;80;80;77;76;76;
0;0;0;0;79;85;85;81;83;83;77;78;78;79;79;79;77;75;75;
0;0;0;0;79;85;85;81;83;83;77;78;78;79;79;79;77;75;75;
0;0;0;0;79;85;85;81;83;83;77;78;78;79;79;79;77;75;75;
0;0;0;0;79;85;85;81;83;83;77;78;78;79;79;79;77;75;75;
0;0;0;0;79;85;85;81;83;83;77;78;78;79;79;79;77;75;75;
0;0;0;0;79;85;85;81;83;83;77;78;78;79;79;79;77;75;75;
0;0;0;0;79;85;85;81;83;83;77;78;78;79;79;79;77;75;75;
0;0;0;0;79;85;85;81;83;83;77;78;78;79;79;79;77;75;75;
0;0;0;0;79;85;85;81;83;83;77;78;78;79;79;79;77;75;75;
0;0;0;0;79;85;85;81;83;83;77;78;78;79;79;79;77;75;75;
0;0;0;0;79;85;85;81;83;83;77;78;78;79;79;79;77;75;75;
0;0;0;0;79;85;85;81;83;83;77;78;78;79;79;79;77;75;75;
0;0;0;0;79;85;85;81;83;83;77;78;78;79;79;79;77;75;75;
0;0;0;0;80;85;85;81;83;83;77;77;77;79;79;79;76;75;75;
0;0;0;0;80;85;85;81;83;83;77;77;77;79;79;79;76;75;75;
0;0;0;0;80;85;85;81;83;83;77;77;77;79;79;79;76;75;75;
0;0;0;0;80;85;85;81;83;83;77;77;77;79;79;79;76;75;75;
0;0;0;0;80;85;85;81;83;83;77;77;77;79;79;79;76;75;75;
0;0;0;0;80;85;85;81;83;83;77;77;77;79;79;79;76;75;75;
0;0;0;0;80;85;85;81;83;83;77;77;77;79;79;79;76;75;75;
0;0;0;0;80;85;85;81;83;83;77;77;77;79;79;79;76;75;75;
0;0;0;0;80;85;85;81;83;83;77;77;77;79;79;79;76;75;75;
0;0;0;0;80;85;85;81;83;83;77;77;77;79;79;79;76;75;75;
0;0;0;0;80;85;85;81;83;83;77;77;77;79;79;79;76;75;75;
0;0;0;0;80;85;85;81;83;83;77;77;77;79;79;79;76;75;75;
0;0;0;0;80;85;85;81;83;83;77;77;77;79;79;79;76;75;75;
0;0;0;0;80;85;85;81;83;83;77;77;77;79;79;79;76;75;75;
0;0;0;0;80;85;85;81;83;83;77;77;77;79;79;79;76;75;75;
0;0;0;0;80;85;85;81;83;83;77;77;77;79;79;79;76;75;75;
0;0;0;0;80;85;85;81;83;83;77;77;77;79;79;79;76;75;75;
0;0;0;0;80;85;85;81;83;83;77;77;77;79;79;79;76;75;75;
0;0;0;0;80;85;85;81;83;83;77;77;77;79;79;79;76;75;75;
0;0;0;0;80;85;85;81;83;83;77;77;77;79;79;79;76;75;75;
0;0;0;0;80;85;85;81;83;83;77;77;77;79;79;79;76;75;75;
0;0;0;0;80;85;85;80;83;83;77;77;77;79;79;79;76;75;75;
0;0;0;0;80;84;84;80;83;83;77;77;77;79;79;79;76;74;74;
0;0;0;0;80;84;84;80;83;83;77;77;77;79;79;79;76;74;74;
0;0;0;0;80;84;84;80;83;83;77;77;77;79;79;79;76;74;74;
0;0;0;0;80;84;84;80;83;83;77;77;77;79;79;79;76;74;74;
0;0;0;0;80;84;84;80;83;83;77;77;77;79;79;79;76;74;74;
0;0;0;0;80;84;84;80;83;83;77;77;77;79;79;79;76;74;74;
0;0;0;0;80;84;84;80;83;83;77;77;77;79;79;79;76;74;74;
0;0;0;0;80;84;84;80;83;83;77;77;77;79;79;79;76;74;74;
0;0;0;0;80;84;84;80;83;83;77;77;77;79;79;79;76;74;74;
0;0;0;0;80;84;84;80;83;83;77;77;77;79;79;79;76;74;74;
0;0;0;0;80;84;84;80;83;83;77;77;77;79;79;79;76;74;74;
0;0;0;0;80;84;84;80;83;83;77;77;77;79;79;79;76;74;74;
0;0;0;0;80;84;84;80;83;83;77;77;77;79;79;79;76;74;74;
0;0;0;0;80;84;84;80;83;83;77;77;77;79;79;79;76;74;74;
0;0;0;0;80;84;84;80;83;83;77;77;77;79;79;79;76;74;74;
0;0;0;0;80;84;84;80;83;83;77;77;77;79;79;79;76;74;74;
0;0;0;0;80;84;84;80;83;83;77;77;77;79;79;79;76;74;74;
0;0;0;0;80;84;84;80;83;83;77;77;77;79;79;79;76;74;74;
0;0;0;0;80;84;84;80;83;83;77;77;77;79;79;79;76;74;74;
0;0;0;0;80;84;84;80;83;83;77;77;77;79;79;79;76;74;74;
0;0;0;0;80;84;84;80;83;83;77;77;77;79;79;79;76;74;74;
0;0;0;0;80;84;84;80;83;83;77;77;77;79;79;79;76;74;74;
0;0;0;0;80;84;84;80;83;83;77;77;77;79;79;79;76;74;74;
0;0;0;0;80;84;84;80;83;83;77;77;77;79;79;79;76;74;74;
0;0;0;0;80;84;84;80;83;83;77;77;77;79;79;79;76;74;74;
0;0;0;0;80;84;84;80;83;83;77;77;77;79;79;79;76;74;74;
0;0;0;0;80;84;84;80;83;83;77;77;77;79;79;79;76;74;74;
0;0;0;0;80;84;84;80;83;83;77;77;77;79;79;79;76;74;74;
0;0;0;0;80;84;84;80;83;83;77;77;77;79;79;79;76;74;74;
0;0;0;0;80;84;84;80;83;83;77;77;77;79;79;79;76;74;74;
0;0;0;0;80;84;84;80;83;83;77;77;77;79;79;79;76;74;74;
0;0;0;0;80;84;84;80;83;83;77;77;77;79;79;79;76;74;74;
0;0;0;0;80;84;84;80;83;83;77;77;77;79;79;79;76;74;74;
0;0;0;0;80;84;84;80;83;83;77;77;77;79;79;79;76;74;74;
0;0;0;0;80;84;84;80;83;83;77;77;77;79;79;79;76;74;74;
0;0;0;0;80;84;84;80;83;83;77;77;77;79;79;79;76;74;74;
0;0;0;0;80;84;84;80;83;83;77;77;77;79;79;79;76;74;74;
0;0;0;0;80;84;84;80;83;83;77;77;77;79;79;79;76;74;74;
0;0;0;0;80;84;84;80;83;83;77;77;77;79;79;79;76;74;74;
0;0;0;0;80;84;84;80;83;83;77;77;77;79;79;79;76;74;74;
0;0;0;0;80;84;84;80;83;83;77;77;77;79;79;79;76;74;74;
0;0;0;0;80;84;84;80;83;83;77;77;77;79;79;79;76;74;74;
0;0;0;0;80;84;84;80;83;83;77;77;77;79;79;79;76;74;74;
0;0;0;0;80;84;84;80;83;83;77;77;77;79;79;79;76;74;74;
0;0;0;0;80;84;84;80;83;83;77;77;77;79;79;79;76;74;74;
0;0;0;0;80;84;84;80;83;83;77;77;77;79;79;79;76;74;74;
0;0;0;0;80;84;84;80;83;83;77;77;77;79;79;79;76;74;74;
0;0;0;0;80;84;84;80;83;83;77;77;77;79;79;79;76;74;74;
0;0;0;0;80;84;84;80;83;83;77;77;77;79;79;79;76;74;74;
0;0;0;0;80;84;84;80;83;83;77;77;77;79;79;79;76;74;74;
0;0;0;0;80;84;84;80;83;83;77;77;77;79;79;79;76;74;74;
0;0;0;0;80;84;84;80;83;83;77;77;77;79;79;79;76;74;74;
0;0;0;0;80;84;84;80;83;83;77;77;77;79;79;79;76;74;74;
0;0;0;0;80;84;84;80;83;83;77;77;77;79;79;79;76;74;74;
0;0;0;0;80;84;84;80;83;83;77;77;77;79;79;79;76;74;74;
0;0;0;0;80;84;84;80;83;83;77;77;77;79;79;79;76;74;74;
0;0;0;0;80;84;84;80;83;83;77;77;77;79;79;79;76;74;74;
0;0;0;0;80;84;84;80;83;83;77;77;77;79;79;79;76;74;74;
0;0;0;0;80;84;84;80;83;83;77;77;77;79;79;79;76;74;74;
0;0;0;0;80;84;84;80;83;83;77;77;77;79;79;79;76;74;74;
0;0;0;0;80;84;84;80;83;83;77;77;77;79;79;79;76;74;74;
0;0;0;0;80;84;84;80;83;83;77;77;77;79;79;79;76;74;74;
0;0;0;0;80;84;84;80;83;83;77;77;77;79;79;79;76;74;74;
0;0;0;0;80;84;84;80;83;83;77;77;77;79;79;79;76;74;74;
0;0;0;0;80;84;84;80;83;83;77;77;77;79;79;79;76;74;74;
0;0;0;0;80;84;84;80;83;83;77;77;77;79;79;79;76;74;74;
0;0;0;0;80;84;84;80;83;83;77;77;77;79;79;79;76;74;74;
0;0;0;0;80;84;84;80;83;83;77;77;77;79;79;79;76;74;74;
0;0;0;0;80;84;84;80;83;83;77;77;77;79;79;79;76;74;74;
0;0;0;0;80;84;84;80;83;83;77;77;77;79;79;79;76;74;74;
0;0;0;0;80;84;84;80;83;83;77;77;77;79;79;79;76;74;74;
0;0;0;0;80;84;84;80;83;83;77;77;77;79;79;79;76;74;74;
0;0;0;0;80;84;84;80;83;83;77;77;77;79;79;79;76;74;74;
0;0;0;0;80;84;84;80;83;83;77;77;77;79;79;79;76;74;74;
0;0;0;0;80;84;84;80;83;83;77;77;77;79;79;79;76;74;74;
0;0;0;0;80;84;84;80;83;83;77;77;77;79;79;79;76;74;74;
0;0;0;0;80;84;84;80;83;83;77;77;77;79;79;79;76;74;74;
0;0;0;0;80;84;84;80;83;83;77;77;77;79;79;79;76;74;74;
0;0;0;0;80;84;84;80;83;83;77;77;77;79;79;79;76;74;74;
0;0;0;0;80;84;84;80;83;83;77;77;77;79;79;79;76;74;74;
0;0;0;0;80;83;83;79;81;81;74;76;76;77;77;77;74;72;72;
0;0;0;0;80;83;83;79;81;81;74;76;76;77;77;77;74;72;72;
0;0;0;0;81;81;81;77;81;81;73;75;75;75;76;76;72;70;70;
0;0;0;0;81;81;81;77;81;81;73;75;75;75;76;76;72;70;70;
0;0;0;0;82;81;81;78;81;81;74;76;76;75;76;76;72;70;70;
0;0;0;0;82;81;81;78;81;81;74;76;76;75;76;76;72;70;70;
0;0;0;0;83;81;81;78;81;81;75;76;76;76;76;76;72;70;70;
0;0;0;0;83;81;81;78;81;81;75;76;76;76;76;76;72;70;70;
0;0;0;0;83;81;81;78;81;81;75;76;76;76;76;76;72;70;70;
0;0;0;0;83;81;81;78;81;81;75;76;76;76;76;76;72;70;70;
0;0;0;0;83;81;81;78;81;81;75;76;76;76;76;76;72;70;70;
0;0;0;0;83;81;81;78;81;81;75;76;76;76;76;76;72;70;70;
0;0;0;0;83;81;81;78;81;81;75;76;76;76;76;76;72;70;70;
0;0;0;0;83;81;81;78;81;81;75;76;76;76;76;76;72;70;70;
0;0;0;0;83;81;81;78;81;81;75;76;76;76;76;76;72;70;70;
0;0;0;0;83;81;81;78;81;81;75;76;76;76;76;76;72;70;70;
0;0;0;0;83;81;81;78;81;81;75;76;76;76;76;76;72;70;70;
0;0;0;0;83;82;82;78;81;81;75;77;77;76;77;77;72;70;70;
0;0;0;0;83;82;82;78;81;81;75;77;77;76;77;77;72;70;70;
0;0;0;0;83;82;82;78;81;81;75;77;77;76;77;77;72;70;70;
0;0;0;0;83;82;82;78;81;81;75;77;77;76;77;77;72;70;70;
0;0;0;0;83;82;82;78;81;81;75;77;77;76;77;77;72;70;70;
0;0;0;0;83;82;82;78;81;81;75;77;77;76;77;77;72;70;70;
0;0;0;0;83;82;82;78;81;81;75;77;77;76;77;77;72;70;70;
0;0;0;0;83;82;82;78;81;81;75;77;77;76;77;77;72;70;70;
0;0;0;0;83;82;82;78;81;81;75;77;77;76;77;77;72;70;70;
0;0;0;0;83;82;82;78;81;81;75;77;77;76;77;77;72;70;70;
0;0;0;0;83;82;82;79;82;82;76;77;77;77;77;77;72;70;70;
0;0;0;0;83;82;82;79;82;82;76;77;77;77;77;77;72;70;70;
0;0;0;0;83;82;82;79;82;82;76;77;77;77;77;77;72;70;70;
0;0;0;0;83;82;82;79;82;82;76;77;77;77;77;77;72;70;70;
0;0;0;0;83;82;82;79;82;82;76;77;77;77;77;77;72;70;70;
0;0;0;0;83;82;82;79;82;82;76;77;77;77;77;77;72;70;70;
0;0;0;0;83;82;82;79;82;82;76;77;77;77;77;77;72;70;70;
0;0;0;0;83;82;82;79;82;82;76;77;77;77;77;77;72;70;70;
0;0;0;0;83;82;82;79;82;82;76;77;77;77;77;77;72;70;70;
0;0;0;0;83;82;82;79;82;82;76;77;77;77;77;77;72;70;70;
0;0;0;0;83;82;82;80;82;82;77;77;77;77;77;77;72;70;70;
0;0;0;0;83;82;82;80;82;82;77;77;77;77;77;77;72;70;70;
0;0;0;0;83;82;82;80;82;82;77;77;77;77;77;77;72;70;70;
0;0;0;0;83;82;82;80;82;82;77;77;77;77;77;77;72;70;70;
0;0;0;0;83;82;82;80;82;82;77;77;77;77;77;77;72;70;70;
0;0;0;0;83;82;82;80;82;82;77;77;77;77;77;77;72;70;70;
0;0;0;0;83;82;82;80;82;82;77;77;77;77;77;77;72;70;70;
0;0;0;0;84;82;82;81;83;83;77;77;77;77;77;77;71;70;70;
0;0;0;0;84;82;82;81;83;83;77;77;77;77;77;77;71;70;70;
0;0;0;0;84;82;82;81;83;83;77;77;77;77;77;77;71;70;70;
0;0;0;0;84;82;82;81;83;83;77;77;77;77;77;77;71;70;70;
0;0;0;0;84;82;82;81;83;83;77;77;77;77;77;77;71;70;70;
0;0;0;0;84;82;82;81;83;83;77;77;77;77;77;77;71;69;69;
0;0;0;0;84;82;82;82;83;83;77;77;77;77;77;77;71;69;69;
0;0;0;0;85;81;81;82;84;84;78;78;78;77;77;77;71;69;69;
0;0;0;0;84;81;81;83;84;84;77;77;77;77;77;77;69;68;68;
0;0;0;0;84;81;81;83;84;84;77;77;77;77;77;77;69;68;68;
0;0;0;0;84;81;81;83;84;84;77;77;77;77;77;77;69;68;68;
0;0;0;0;84;81;81;83;84;84;77;77;77;77;77;77;69;68;68;
0;0;0;0;84;81;81;83;84;84;77;77;77;77;77;77;69;68;68;
0;0;0;0;84;81;81;83;84;84;77;77;77;77;77;77;69;68;68;
0;0;0;0;84;81;81;83;84;84;77;77;77;77;77;77;69;68;68;
0;0;0;0;84;81;81;83;84;84;77;77;77;77;77;77;69;68;68;
0;0;0;0;84;81;81;83;84;84;77;77;77;77;77;77;69;68;68;
0;0;0;0;84;81;81;83;84;84;77;77;77;77;77;77;69;68;68;
0;0;0;0;84;81;81;83;84;84;77;77;77;77;77;77;69;68;68;
0;0;0;0;84;81;81;83;84;84;77;77;77;77;77;77;69;68;68;
0;0;0;0;84;81;81;83;84;84;77;77;77;77;77;77;69;68;68;
0;0;0;0;84;81;81;83;84;84;77;77;77;77;77;77;69;68;68;
0;0;0;0;84;81;81;83;84;84;77;77;77;77;77;77;69;68;68;
0;0;0;0;84;81;81;83;84;84;77;77;77;77;77;77;69;68;68;
0;0;0;0;84;81;81;83;84;84;77;77;77;77;77;77;69;68;68;
0;0;0;0;84;81;81;83;84;84;77;77;77;77;77;77;69;68;68;
0;0;0;0;84;81;81;83;84;84;77;77;77;77;77;77;69;68;68;
0;0;0;0;84;81;81;83;84;84;77;77;77;77;77;77;69;68;68;
0;0;0;0;84;81;81;83;84;84;77;77;77;77;77;77;69;68;68;
0;0;0;0;84;81;81;83;84;84;77;77;77;77;77;77;69;68;68;
0;0;0;0;84;81;81;83;84;84;77;77;77;77;77;77;69;68;68;
0;0;0;0;84;81;81;83;84;84;77;77;77;77;77;77;69;68;68;
0;0;0;0;84;81;81;83;84;84;77;77;77;77;77;77;69;68;68;
0;0;0;0;84;81;81;83;84;84;77;77;77;77;77;77;69;68;68;
0;0;0;0;84;81;81;83;84;84;77;77;77;77;77;77;69;68;68;
0;0;0;0;84;81;81;83;84;84;77;77;77;77;77;77;69;68;68;
0;0;0;0;84;81;81;83;84;84;77;77;77;77;77;77;69;68;68;
0;0;0;0;84;81;81;83;84;84;77;77;77;77;77;77;69;68;68;
0;0;0;0;84;81;81;83;84;84;77;77;77;77;77;77;69;68;68;
0;0;0;0;84;81;81;83;84;84;77;77;77;77;77;77;69;68;68;
0;0;0;0;84;81;81;83;84;84;77;77;77;77;77;77;69;68;68;
0;0;0;0;84;81;81;83;84;84;77;77;77;77;77;77;69;68;68;
0;0;0;0;84;81;81;83;84;84;77;77;77;77;77;77;69;68;68;
0;0;0;0;84;81;81;83;84;84;77;77;77;77;77;77;69;68;68;
0;0;0;0;85;81;81;83;84;84;78;78;78;77;77;77;69;67;67;
0;0;0;0;85;81;81;83;84;84;78;78;78;77;77;77;69;67;67;
0;0;0;0;85;81;81;83;84;84;78;78;78;77;77;77;69;67;67;
0;0;0;0;85;81;81;83;84;84;78;78;78;77;77;77;69;67;67;
0;0;0;0;85;81;81;83;84;84;78;78;78;77;77;77;69;67;67;
0;0;0;0;85;81;81;83;84;84;78;78;78;77;77;77;69;67;67;
0;0;0;0;85;81;81;83;84;84;78;78;78;77;77;77;69;67;67;
0;0;0;0;85;81;81;83;84;84;78;78;78;77;77;77;69;67;67;
0;0;0;0;85;81;81;83;84;84;78;78;78;77;77;77;69;67;67;
0;0;0;0;85;81;81;83;84;84;78;78;78;77;77;77;69;67;67;
0;0;0;0;85;81;81;83;84;84;78;78;78;77;77;77;69;67;67;
0;0;0;0;85;81;81;83;84;84;78;78;78;77;77;77;69;67;67;
0;0;0;0;85;81;81;83;85;85;78;78;78;77;77;77;68;67;67;
0;0;0;0;85;81;81;83;84;84;77;78;78;77;77;77;68;67;67;
0;0;0;0;85;81;81;83;84;84;77;78;78;77;77;77;68;67;67;
0;0;0;0;85;81;81;83;84;84;77;78;78;77;77;77;68;67;67;
0;0;0;0;85;81;81;83;84;84;77;78;78;77;77;77;68;67;67;
0;0;0;0;85;81;81;83;84;84;77;78;78;77;77;77;68;67;67;
0;0;0;0;85;81;81;83;84;84;77;78;78;77;77;77;68;67;67;
0;0;0;0;85;81;81;83;84;84;77;78;78;77;77;77;68;67;67;
0;0;0;0;85;81;81;83;84;84;77;78;78;77;77;77;68;67;67;
0;0;0;0;85;81;81;83;84;84;77;78;78;77;77;77;68;67;67;
0;0;0;0;85;81;81;83;84;84;77;78;78;77;77;77;68;67;67;
0;0;0;0;85;81;81;83;84;84;77;78;78;77;77;77;68;67;67;
0;0;0;0;85;81;81;83;84;84;77;78;78;77;77;77;68;67;67;
0;0;0;0;85;81;81;83;84;84;77;78;78;77;77;77;68;67;67;
0;0;0;0;85;81;81;83;84;84;77;78;78;77;77;77;68;67;67;
0;0;0;0;85;81;81;83;84;84;77;78;78;77;77;77;68;67;67;
0;0;0;0;85;81;81;83;84;84;77;78;78;77;77;77;68;67;67;
0;0;0;0;85;81;81;83;84;84;77;78;78;77;77;77;68;67;67;
0;0;0;0;85;81;81;83;84;84;77;78;78;77;77;77;68;67;67;
0;0;0;0;85;81;81;83;84;84;77;78;78;77;77;77;68;67;67;
0;0;0;0;85;81;81;83;84;84;77;78;78;77;77;77;68;67;67;
0;0;0;0;85;81;81;83;84;84;77;78;78;76;76;76;67;66;66;
0;0;0;0;85;82;82;84;85;85;78;79;79;76;76;76;64;64;64;
0;0;0;0;84;82;82;84;85;85;79;79;79;76;75;75;64;63;63;
0;0;0;0;84;82;82;84;85;85;79;79;79;76;75;75;64;63;63;
0;0;0;0;84;82;82;84;85;85;79;79;79;76;75;75;64;63;63;
0;0;0;0;84;82;82;84;85;85;79;79;79;76;75;75;64;63;63;
0;0;0;0;84;82;82;84;85;85;79;79;79;76;75;75;64;63;63;
0;0;0;0;84;82;82;84;85;85;79;79;79;76;75;75;64;63;63;
0;0;0;0;84;82;82;84;85;85;79;79;79;76;75;75;64;63;63;
0;0;0;0;84;82;82;84;85;85;79;79;79;76;75;75;64;63;63;
0;0;0;0;84;82;82;84;85;85;79;79;79;76;75;75;64;63;63;
0;0;0;0;84;82;82;84;85;85;79;79;79;76;75;75;64;63;63;
0;0;0;0;84;82;82;84;85;85;79;79;79;76;75;75;64;63;63;
0;0;0;0;84;82;82;84;85;85;79;79;79;76;75;75;64;63;63;
0;0;0;0;84;82;82;84;85;85;79;79;79;76;75;75;64;63;63;
0;0;0;0;84;82;82;84;85;85;79;79;79;76;75;75;64;63;63;
0;0;0;0;84;82;82;84;85;85;79;79;79;76;75;75;64;63;63;
0;0;0;0;84;82;82;84;85;85;79;79;79;76;75;75;64;63;63;
0;0;0;0;84;82;82;84;85;85;79;79;79;76;75;75;64;63;63;
0;0;0;0;84;82;82;84;85;85;79;79;79;76;75;75;64;63;63;
0;0;0;0;84;82;82;84;85;85;79;79;79;76;75;75;64;63;63;
0;0;0;0;84;82;82;84;85;85;79;79;79;76;75;75;64;63;63;
0;0;0;0;84;82;82;84;85;85;79;79;79;76;75;75;64;63;63;
0;0;0;0;84;82;82;84;85;85;79;79;79;76;75;75;64;63;63;
0;0;0;0;84;82;82;84;85;85;79;79;79;76;75;75;64;63;63;
0;0;0;0;84;82;82;84;85;85;79;79;79;76;75;75;64;63;63;
0;0;0;0;84;82;82;84;85;85;79;79;79;76;75;75;64;63;63;
0;0;0;0;84;82;82;84;85;85;79;79;79;76;75;75;64;63;63;
0;0;0;0;84;82;82;84;85;85;79;79;79;76;75;75;64;63;63;
0;0;0;0;84;82;82;84;85;85;79;79;79;76;75;75;64;63;63;
0;0;0;0;84;82;82;84;85;85;79;79;79;76;75;75;64;63;63;
0;0;0;0;84;82;82;84;85;85;79;79;79;76;75;75;64;63;63;
0;0;0;0;84;82;82;84;85;85;79;79;79;76;75;75;64;63;63;
0;0;0;0;84;82;82;84;85;85;79;79;79;76;75;75;64;63;63;
0;0;0;0;84;82;82;84;85;85;79;79;79;76;75;75;64;63;63;
0;0;0;0;84;82;82;84;85;85;79;79;79;76;75;75;64;63;63;
0;0;0;0;84;82;82;84;85;85;79;79;79;76;75;75;64;63;63;
0;0;0;0;83;82;82;83;85;85;78;79;79;76;75;75;64;63;63;
0;0;0;0;83;82;82;83;85;85;78;79;79;76;75;75;64;63;63;
0;0;0;0;83;82;82;83;85;85;78;79;79;76;75;75;64;63;63;
0;0;0;0;83;82;82;83;85;85;78;79;79;76;75;75;64;63;63;
0;0;0;0;83;82;82;83;85;85;78;79;79;76;75;75;64;63;63;
0;0;0;0;83;82;82;83;85;85;78;79;79;76;75;75;64;63;63;
0;0;0;0;83;82;82;83;85;85;78;79;79;76;75;75;64;63;63;
0;0;0;0;83;82;82;83;85;85;78;79;79;76;75;75;64;63;63;
0;0;0;0;83;82;82;83;85;85;78;79;79;76;75;75;64;63;63;
0;0;0;0;83;82;82;83;85;85;78;79;79;76;75;75;64;63;63;
0;0;0;0;83;82;82;83;85;85;78;79;79;76;75;75;64;63;63;
0;0;0;0;83;82;82;83;85;85;78;79;79;76;75;75;64;63;63;
0;0;0;0;83;82;82;83;85;85;78;79;79;75;75;75;63;63;63;
0;0;0;0;83;82;82;83;85;85;78;79;79;75;75;75;63;63;63;
0;0;0;0;83;82;82;83;85;85;78;79;79;75;75;75;63;63;63;
0;0;0;0;83;82;82;83;85;85;78;79;79;75;75;75;63;63;63;
0;0;0;0;83;82;82;83;85;85;78;79;79;75;75;75;63;63;63;
0;0;0;0;83;82;82;83;85;85;78;79;79;75;75;75;63;62;62;
0;0;0;0;83;82;82;83;85;85;78;79;79;75;75;75;63;62;62;
0;0;0;0;83;82;82;83;85;85;78;79;79;75;75;75;63;62;62;
0;0;0;0;83;82;82;83;85;85;78;79;79;75;75;75;63;62;62;
0;0;0;0;83;82;82;83;85;85;78;79;79;75;75;75;63;62;62;
0;0;0;0;82;82;82;83;85;85;78;79;79;76;75;75;63;62;62;
0;0;0;0;82;82;82;83;85;85;78;79;79;76;75;75;63;62;62;
0;0;0;0;82;82;82;83;85;85;78;79;79;76;75;75;63;62;62;
0;0;0;0;82;82;82;83;85;85;78;79;79;76;75;75;63;62;62;
0;0;0;0;82;82;82;83;85;85;78;79;79;76;75;75;63;62;62;
0;0;0;0;82;82;82;83;85;85;78;79;79;76;75;75;63;62;62;
0;0;0;0;82;82;82;83;85;85;78;79;79;76;75;75;63;62;62;
0;0;0;0;82;82;82;83;85;85;78;79;79;76;75;75;63;62;62;
0;0;0;0;82;82;82;83;85;85;78;79;79;76;75;75;63;62;62;
0;0;0;0;82;82;82;83;85;85;78;79;79;76;75;75;63;62;62;
0;0;2;2;82;82;82;83;85;85;78;79;79;76;75;75;63;62;62;
2;2;2;2;82;82;82;83;85;85;78;79;79;76;75;75;63;62;62;
2;2;2;2;82;82;82;83;85;85;78;79;79;76;75;75;63;62;62;
2;2;2;2;82;82;82;83;85;85;79;79;79;75;74;74;63;62;62;
2;2;2;2;82;82;82;84;85;85;80;80;80;74;74;74;63;62;62;
2;2;2;2;82;82;82;84;85;85;80;80;80;74;74;74;63;62;62;
2;2;2;2;82;82;82;84;85;85;80;80;80;74;74;74;63;62;62;
2;2;2;2;82;82;82;84;85;85;80;80;80;74;74;74;63;62;62;
2;2;2;2;82;82;82;84;85;85;80;80;80;74;74;74;63;62;62;
2;2;2;2;82;82;82;84;85;85;80;80;80;74;74;74;63;62;62;
2;2;2;2;82;82;82;84;85;85;80;80;80;74;74;74;63;62;62;
2;2;2;2;82;82;82;84;85;85;80;80;80;74;74;74;63;62;62;
2;2;2;2;82;82;82;84;85;85;80;80;80;74;74;74;63;62;62;
2;2;2;2;82;82;82;84;85;85;80;80;80;74;74;74;63;62;62;
2;2;2;2;82;82;82;84;85;85;80;80;80;74;74;74;63;62;62;
2;2;2;2;82;82;82;84;85;85;80;80;80;74;74;74;63;62;62;
2;2;2;2;82;82;82;84;85;85;80;80;80;74;74;74;63;62;62;
2;2;2;2;82;82;82;84;85;85;80;80;80;74;74;74;63;62;62;
2;2;2;2;82;82;82;84;85;85;80;80;80;74;74;74;63;62;62;
2;2;2;2;82;82;82;84;85;85;80;80;80;74;74;74;63;62;62;
2;2;2;2;82;82;82;84;85;85;80;80;80;74;74;74;63;62;62;
2;2;2;2;82;82;82;84;85;85;80;80;80;74;74;74;63;62;62;
2;2;2;2;82;82;82;84;85;85;80;80;80;74;74;74;63;62;62;
2;2;2;2;82;82;82;84;85;85;80;80;80;74;74;74;63;62;62;
2;2;2;2;82;82;82;84;85;85;80;80;80;74;74;74;63;62;62;
2;2;2;2;82;82;82;84;85;85;80;80;80;74;74;74;63;62;62;
2;2;2;2;82;82;82;84;85;85;80;80;80;74;74;74;63;62;62;
2;2;2;2;82;82;82;84;85;85;80;80;80;74;74;74;63;62;62;
2;2;2;2;82;82;82;84;85;85;80;80;80;74;74;74;63;62;62;
2;2;2;2;82;82;82;84;85;85;80;80;80;74;74;74;63;62;62;
2;2;2;2;82;82;82;84;85;85;80;80;80;74;74;74;63;62;62;
2;2;2;2;82;82;82;84;85;85;80;80;80;74;74;74;63;62;62;
2;2;2;2;82;82;82;84;85;85;80;80;80;74;74;74;63;62;62;
2;2;2;2;82;82;82;84;85;85;80;80;80;74;74;74;63;62;62;
2;2;2;2;82;82;82;84;85;85;80;80;80;74;74;74;63;62;62;
2;2;2;2;82;82;82;84;85;85;80;80;80;74;74;74;63;62;62;
2;2;2;2;82;82;82;84;85;85;80;80;80;74;74;74;63;62;62;
2;2;2;2;82;82;82;84;85;85;80;80;80;74;74;74;63;62;62;
2;2;2;2;82;82;82;84;85;85;80;80;80;74;74;74;63;62;62;
2;2;2;2;82;82;82;84;85;85;80;80;80;74;74;74;63;62;62;
2;2;2;2;82;82;82;84;85;85;80;80;80;74;74;74;63;62;62;
2;2;2;2;82;82;82;84;85;85;80;80;80;74;74;74;63;62;62;
2;2;2;2;82;82;82;84;85;85;80;80;80;74;74;74;63;62;62;
2;2;2;2;82;82;82;84;85;85;80;80;80;74;74;74;63;62;62;
2;2;2;2;82;82;82;84;85;85;80;80;80;74;74;74;63;62;62;
2;2;2;2;82;82;82;84;85;85;80;80;80;74;74;74;63;62;62;
2;2;2;2;82;82;82;84;85;85;80;80;80;74;74;74;63;62;62;
2;2;2;2;82;82;82;84;85;85;80;80;80;74;74;74;63;62;62;
2;2;2;2;82;82;82;84;85;85;80;80;80;74;74;74;63;62;62;
2;2;2;2;82;82;82;84;85;85;80;80;80;74;74;74;63;62;62;
2;2;2;2;82;82;82;84;85;85;80;80;80;74;74;74;63;62;62;
2;2;2;2;82;82;82;84;85;85;80;80;80;74;74;74;63;62;62;
2;2;2;2;82;82;82;84;85;85;80;80;80;74;74;74;63;62;62;
2;2;2;2;82;82;82;84;85;85;80;80;80;74;74;74;63;62;62;
2;2;2;2;82;82;82;84;85;85;80;80;80;74;74;74;63;62;62;
2;2;2;2;82;82;82;84;85;85;80;80;80;74;74;74;63;62;62;
2;2;2;2;82;82;82;84;85;85;80;80;80;74;74;74;63;62;62;
2;2;2;2;82;82;82;84;85;85;80;80;80;74;74;74;63;62;62;
2;2;2;2;82;82;82;84;85;85;80;80;80;74;74;74;63;62;62;
2;2;2;2;82;82;82;84;85;85;80;80;80;74;74;74;63;62;62;
2;2;2;2;82;82;82;84;85;85;80;80;80;74;74;74;63;62;62;
2;2;2;2;82;82;82;84;85;85;80;80;80;74;74;74;63;62;62;
2;2;2;2;82;82;82;84;85;85;80;80;80;74;74;74;63;62;62;
2;2;2;2;82;82;82;84;85;85;80;80;80;74;74;74;63;62;62;
2;2;2;2;82;82;82;84;85;85;80;80;80;74;74;74;63;62;62;
2;2;2;2;82;82;82;84;85;85;80;80;80;74;74;74;63;62;62;
2;2;2;2;82;82;82;84;85;85;80;80;80;74;74;74;63;62;62;
2;2;2;2;82;82;82;84;85;85;80;80;80;74;74;74;63;62;62;
2;2;2;2;82;82;82;84;85;85;80;80;80;74;74;74;63;62;62;
2;2;2;2;82;82;82;84;85;85;80;80;80;74;74;74;63;62;62;
2;2;2;2;82;82;82;84;85;85;80;80;80;74;74;74;63;62;62;
2;2;2;2;82;82;82;84;85;85;80;80;80;74;74;74;63;62;62;
2;2;2;2;82;82;82;84;85;85;80;80;80;74;74;74;63;62;62;
2;2;2;2;82;82;82;84;85;85;80;80;80;74;74;74;63;62;62;
2;2;2;2;82;82;82;84;85;85;80;80;80;74;74;74;63;62;62;
2;2;2;2;82;82;82;84;85;85;80;80;80;74;74;74;63;62;62;
2;2;2;2;82;82;82;84;85;85;80;80;80;74;74;74;63;62;62;
2;2;2;2;82;82;82;84;85;85;80;80;80;74;74;74;63;62;62;
2;2;2;2;82;82;82;84;85;85;80;80;80;74;74;74;63;62;62;
2;2;2;2;82;82;82;84;85;85;80;80;80;74;74;74;63;62;62;
2;2;2;2;82;82;82;84;85;85;80;80;80;74;74;74;63;62;62;
2;2;2;2;82;82;82;84;85;85;80;80;80;74;74;74;63;62;62;
2;2;2;2;82;82;82;84;85;85;80;80;80;74;74;74;63;62;62;
2;2;2;2;82;82;82;84;85;85;80;80;80;74;74;74;63;62;62;
2;2;2;2;82;82;82;84;86;86;80;81;81;74;73;73;64;64;64;
2;2;2;2;81;82;82;84;86;86;80;81;81;74;73;73;65;64;64;
2;2;2;2;81;83;83;84;86;86;80;81;81;74;73;73;65;64;64;
2;2;2;2;81;83;83;84;86;86;81;81;81;74;74;74;65;64;64;
2;2;2;2;81;83;83;84;86;86;81;81;81;74;74;74;65;64;64;
2;2;2;2;81;83;83;84;86;86;81;81;81;74;74;74;65;64;64;
2;2;2;2;81;83;83;84;86;86;81;81;81;74;74;74;65;64;64;
2;2;2;2;81;83;83;84;86;86;81;81;81;74;74;74;65;64;64;
2;2;2;2;81;83;83;84;86;86;81;81;81;74;74;74;65;64;64;
2;2;2;2;81;83;83;84;86;86;81;81;81;74;74;74;65;64;64;
2;2;2;2;81;83;83;84;86;86;81;81;81;74;74;74;65;64;64;
2;2;2;2;81;83;83;84;86;86;81;81;81;74;74;74;65;64;64;
2;2;2;2;81;83;83;84;86;86;81;81;81;74;74;74;65;64;64;
2;2;2;2;81;83;83;84;86;86;81;81;81;74;74;74;65;64;64;
2;2;2;2;81;83;83;84;86;86;81;81;81;74;74;74;65;64;64;
2;2;2;2;81;83;83;84;86;86;81;81;81;74;74;74;65;64;64;
2;2;2;2;81;83;83;84;86;86;81;81;81;74;74;74;65;64;64;
2;2;2;2;81;83;83;84;86;86;81;81;81;74;74;74;65;64;64;
2;2;2;2;81;83;83;84;86;86;81;81;81;74;74;74;65;64;64;
2;2;2;2;81;83;83;84;86;86;81;81;81;74;74;74;65;64;64;
2;2;2;2;81;83;83;84;86;86;81;81;81;74;74;74;65;64;64;
2;2;2;2;81;83;83;84;86;86;81;81;81;74;74;74;65;64;64;
2;2;2;2;81;83;83;84;86;86;81;81;81;74;74;74;65;64;64;
2;2;2;2;81;83;83;84;86;86;81;81;81;74;74;74;65;64;64;
2;2;2;2;81;83;83;84;86;86;81;81;81;74;74;74;65;64;64;
2;2;2;2;81;83;83;84;86;86;81;81;81;74;74;74;65;64;64;
2;2;2;2;81;83;83;84;86;86;81;81;81;74;74;74;65;64;64;
2;2;2;2;81;83;83;84;86;86;81;81;81;74;74;74;65;64;64;
2;2;2;2;81;83;83;84;86;86;81;81;81;74;74;74;65;64;64;
2;2;2;2;81;83;83;84;86;86;81;81;81;74;74;74;65;64;64;
2;2;2;2;81;83;83;84;86;86;81;81;81;74;74;74;65;64;64;
2;2;2;2;81;83;83;84;86;86;81;81;81;74;74;74;65;64;64;
2;2;2;2;81;83;83;84;86;86;81;81;81;74;74;74;65;64;64;
2;2;2;2;81;83;83;84;86;86;81;81;81;74;74;74;65;64;64;
2;2;2;2;81;83;83;84;86;86;81;81;81;74;74;74;65;64;64;
2;2;2;2;81;83;83;84;86;86;81;81;81;74;74;74;65;64;64;
2;2;2;2;81;83;83;84;86;86;81;81;81;74;74;74;65;64;64;
2;2;2;2;81;83;83;84;86;86;81;81;81;74;74;74;65;64;64;
2;2;2;2;81;83;83;84;86;86;81;81;81;74;74;74;65;64;64;
2;2;2;2;81;83;83;84;86;86;81;81;81;74;74;74;65;64;64;
2;2;2;2;81;83;83;84;86;86;81;81;81;74;74;74;65;64;64;
2;2;2;2;81;83;83;84;86;86;81;81;81;74;74;74;65;64;64;
2;2;2;2;81;83;83;84;86;86;81;81;81;74;74;74;65;64;64;
2;2;2;2;81;83;83;84;86;86;81;81;81;74;74;74;65;64;64;
2;2;2;2;81;83;83;84;86;86;81;81;81;74;74;74;65;64;64;
2;1;2;2;81;83;83;84;86;86;81;81;81;74;74;74;65;65;65;
1;1;1;1;81;83;83;84;86;86;81;81;81;74;74;74;65;65;65;
1;1;1;1;81;83;83;84;86;86;81;81;81;74;74;74;65;65;65;
1;1;1;1;81;83;83;84;86;86;81;81;81;74;74;74;65;65;65;
1;1;1;1;81;83;83;84;86;86;81;81;81;74;74;74;65;65;65;
1;1;0;0;81;83;83;84;86;86;81;81;81;74;74;74;65;65;65;
0;0;0;0;81;83;83;84;86;86;81;81;81;74;74;74;65;65;65;
0;0;0;0;81;83;83;84;86;86;81;81;81;74;74;74;65;65;65;
0;0;0;0;81;83;83;84;86;86;81;81;81;74;74;74;65;65;65;
0;0;0;0;81;83;83;84;86;86;81;81;81;74;74;74;65;65;65;
0;0;0;0;81;83;83;84;86;86;81;81;81;74;74;74;65;65;65;
0;0;0;0;81;83;83;84;86;86;81;81;81;74;74;74;65;65;65;
0;0;0;0;81;83;83;84;86;86;81;81;81;74;74;74;65;65;65;
0;0;0;0;81;83;83;84;86;86;81;81;81;74;74;74;65;65;65;
0;0;0;0;81;83;83;84;86;86;81;81;81;74;74;74;65;65;65;
0;0;0;0;81;83;83;84;86;86;81;81;81;74;74;74;65;65;65;
0;0;0;0;81;83;83;84;86;86;81;81;81;74;74;74;65;65;65;
0;0;0;0;81;83;83;84;86;86;81;81;81;74;74;74;65;65;65;
0;0;0;0;81;83;83;84;86;86;81;81;81;74;74;74;65;65;65;
0;0;0;0;81;83;83;84;86;86;81;81;81;74;74;74;65;65;65;
0;0;0;0;81;83;83;84;86;86;81;81;81;74;74;74;65;65;65;
0;0;0;0;81;83;83;84;86;86;81;81;81;74;74;74;65;65;65;
0;0;0;0;81;83;83;84;86;86;81;81;81;74;74;74;65;65;65;
0;0;0;0;81;83;83;84;86;86;81;81;81;74;74;74;65;65;65;
0;0;0;0;81;83;83;84;86;86;81;81;81;74;74;74;65;65;65;
0;0;0;0;81;83;83;84;86;86;81;81;81;74;74;74;65;65;65;
0;0;0;0;81;83;83;84;86;86;81;81;81;74;74;74;65;65;65;
0;0;0;0;81;83;83;84;86;86;81;81;81;74;74;74;65;65;65;
0;0;0;0;81;83;83;84;86;86;81;81;81;74;74;74;65;65;65;
0;0;0;0;81;83;83;84;86;86;81;81;81;74;74;74;65;65;65;
0;0;0;0;81;83;83;84;87;87;81;81;81;74;74;74;66;65;65;
0;0;0;0;81;83;83;84;87;87;81;82;82;75;74;74;66;65;65;
0;0;0;0;80;83;83;84;87;87;81;82;82;75;75;75;66;65;65;
0;0;0;0;80;83;83;84;87;87;81;82;82;75;75;75;66;65;65;
0;0;0;0;80;83;83;84;87;87;81;82;82;75;75;75;66;65;65;
0;0;0;0;80;83;83;84;87;87;81;82;82;75;75;75;66;65;65;
0;0;0;0;80;83;83;84;87;87;81;82;82;75;75;75;66;65;65;
0;0;0;0;80;83;83;84;87;87;81;82;82;75;75;75;66;65;65;
0;0;0;0;80;83;83;84;87;87;81;82;82;75;75;75;66;65;65;
0;0;0;0;80;83;83;84;87;87;81;82;82;75;75;75;66;65;65;
0;0;0;0;80;83;83;84;87;87;81;82;82;75;75;75;66;65;65;
0;0;0;0;80;83;83;84;87;87;81;82;82;75;75;75;66;65;65;
0;0;0;0;80;83;83;84;87;87;81;82;82;75;75;75;66;65;65;
0;0;0;0;80;83;83;84;87;87;81;82;82;75;75;75;66;65;65;
0;0;0;0;80;83;83;84;87;87;81;82;82;75;75;75;66;65;65;
0;0;0;0;80;83;83;84;87;87;81;82;82;75;75;75;66;65;65;
0;0;0;0;80;83;83;84;87;87;81;82;82;75;75;75;66;65;65;
0;0;0;0;80;83;83;84;87;87;81;82;82;75;75;75;66;65;65;
0;0;0;0;80;83;83;84;87;87;81;82;82;75;75;75;66;65;65;
0;0;0;0;80;83;83;84;87;87;81;82;82;75;75;75;66;65;65;
0;0;0;0;80;83;83;84;87;87;81;82;82;75;75;75;66;65;65;
0;0;0;0;80;83;83;84;87;87;81;82;82;75;75;75;66;65;65;
0;0;0;0;80;83;83;84;87;87;81;82;82;75;75;75;66;65;65;
0;0;0;0;80;83;83;84;87;87;81;82;82;75;75;75;66;65;65;
0;0;0;0;80;83;83;84;87;87;81;82;82;75;75;75;66;65;65;
0;0;0;0;80;83;83;84;87;87;81;82;82;75;75;75;66;65;65;
0;0;0;0;80;83;83;84;87;87;81;82;82;75;75;75;66;65;65;
0;0;0;0;80;83;83;84;87;87;81;82;82;75;75;75;66;65;65;
0;0;0;0;80;83;83;84;87;87;81;82;82;75;75;75;66;65;65;
0;0;0;0;80;83;83;84;87;87;81;82;82;75;75;75;66;65;65;
0;0;0;0;80;83;83;84;87;87;81;82;82;75;75;75;66;65;65;
0;0;0;0;80;83;83;84;87;87;81;82;82;75;75;75;66;65;65;
0;0;0;0;80;83;83;84;87;87;81;82;82;75;75;75;66;65;65;
0;0;0;0;80;83;83;84;87;87;81;82;82;75;75;75;66;65;65;
0;0;0;0;80;83;83;84;87;87;81;82;82;75;75;75;66;65;65;
0;0;0;0;80;83;83;84;87;87;81;82;82;75;75;75;66;65;65;
0;0;0;0;80;83;83;84;87;87;81;82;82;75;75;75;66;65;65;
0;0;0;0;80;83;83;84;87;87;81;82;82;75;75;75;66;65;65;
0;0;0;0;80;83;83;84;87;87;81;82;82;75;75;75;66;65;65;
0;0;0;0;80;83;83;84;87;87;81;82;82;75;75;75;66;65;65;
0;0;0;0;80;83;83;84;87;87;81;82;82;75;75;75;66;65;65;
0;0;0;0;80;83;83;84;87;87;81;82;82;75;75;75;66;65;65;
0;0;0;0;80;83;83;84;87;87;81;82;82;75;75;75;66;65;65;
0;0;0;0;80;83;83;84;87;87;81;82;82;75;75;75;66;65;65;
0;0;0;0;80;83;83;84;87;87;81;82;82;75;75;75;66;65;65;
0;0;0;0;80;83;83;84;87;87;81;82;82;75;75;75;66;65;65;
0;0;0;0;80;83;83;84;87;87;81;82;82;75;75;75;66;65;65;
0;0;0;0;80;83;83;84;87;87;81;82;82;75;75;75;66;65;65;
0;0;0;0;80;83;83;84;87;87;81;82;82;75;75;75;66;65;65;
0;0;0;0;80;83;83;84;87;87;81;82;82;75;75;75;66;65;65;
0;0;0;0;80;83;83;84;87;87;81;82;82;75;75;75;66;65;65;
0;0;0;0;80;83;83;84;87;87;81;82;82;75;75;75;66;65;65;
0;0;0;0;80;83;83;84;87;87;81;82;82;75;75;75;66;65;65;
0;0;0;0;80;83;83;84;87;87;81;82;82;75;75;75;66;65;65;
0;0;0;0;80;83;83;84;87;87;81;82;82;75;75;75;66;65;65;
0;0;0;0;80;83;83;84;87;87;81;82;82;75;75;75;66;65;65;
0;0;0;0;80;83;83;84;87;87;81;82;82;75;75;75;66;65;65;
0;0;0;0;80;83;83;84;87;87;81;82;82;75;75;75;66;65;65;
0;0;0;0;80;83;83;84;87;87;81;82;82;75;75;75;66;65;65;
0;0;0;0;80;83;83;84;87;87;81;82;82;75;75;75;66;65;65;
0;0;0;0;80;83;83;84;87;87;81;82;82;75;75;75;66;65;65;
0;0;0;0;80;83;83;84;87;87;81;82;82;75;75;75;66;65;65;
0;0;0;0;80;83;83;84;87;87;81;82;82;76;75;75;66;65;65;
0;0;0;0;80;83;83;84;87;87;81;82;82;76;75;75;66;65;65;
0;0;0;0;80;83;83;84;87;87;81;82;82;76;75;75;66;65;65;
0;0;0;0;80;83;83;84;87;87;81;82;82;76;75;75;66;65;65;
0;0;0;0;80;83;83;84;87;87;81;82;82;76;75;75;66;65;65;
0;0;0;0;80;83;83;84;87;87;81;82;82;76;75;75;66;65;65;
0;0;0;0;80;83;83;84;87;87;81;82;82;76;75;75;66;65;65;
0;0;0;0;80;83;83;84;87;87;81;82;82;76;75;75;66;65;65;
0;0;0;0;80;83;83;84;87;87;81;82;82;76;75;75;66;65;65;
0;0;0;0;80;83;83;84;87;87;81;82;82;76;75;75;66;65;65;
0;0;0;0;80;83;83;84;87;87;81;82;82;76;75;75;66;65;65;
0;0;0;0;80;83;83;84;87;87;81;82;82;76;75;75;66;65;65;
0;0;0;0;80;83;83;84;87;87;81;82;82;76;75;75;66;65;65;
0;0;0;0;80;83;83;84;87;87;81;82;82;76;75;75;66;65;65;
0;0;0;0;80;83;83;84;87;87;81;82;82;76;75;75;66;65;65;
0;0;0;0;80;83;83;84;87;87;81;82;82;76;75;75;66;65;65;
0;0;0;0;80;83;83;84;87;87;81;82;82;76;75;75;66;65;65;
0;0;0;0;80;83;83;84;86;86;81;82;82;76;75;75;66;65;65;
0;0;0;0;80;83;83;83;86;86;80;82;82;76;76;76;66;65;65;
0;0;0;0;80;83;83;83;86;86;80;82;82;76;76;76;66;65;65;
0;0;0;0;80;83;83;83;86;86;80;82;82;76;76;76;66;65;65;
0;0;0;0;80;83;83;83;86;86;80;82;82;76;76;76;66;65;65;
0;0;0;0;80;83;83;83;86;86;80;82;82;76;76;76;66;65;65;
0;0;0;0;80;83;83;83;86;86;80;82;82;76;76;76;66;65;65;
0;0;0;0;80;83;83;83;86;86;80;82;82;76;76;76;66;65;65;
0;0;0;0;80;83;83;83;86;86;80;82;82;76;76;76;66;65;65;
0;0;0;0;80;83;83;83;86;86;80;82;82;76;76;76;66;65;65;
0;0;0;0;80;83;83;83;86;86;80;82;82;76;76;76;66;65;65;
0;0;0;0;80;83;83;83;86;86;80;82;82;76;76;76;66;65;65;
0;0;0;0;80;83;83;83;86;86;80;82;82;76;76;76;66;65;65;
0;0;0;0;80;83;83;83;86;86;80;82;82;76;76;76;66;65;65;
0;0;0;0;80;83;83;83;86;86;80;82;82;76;76;76;66;65;65;
0;0;0;0;80;83;83;83;86;86;80;82;82;76;76;76;66;65;65;
0;0;0;0;80;83;83;83;86;86;80;82;82;76;76;76;66;65;65;
0;0;0;0;80;83;83;83;86;86;80;82;82;76;76;76;66;65;65;
0;0;0;0;80;83;83;83;86;86;80;82;82;76;76;76;66;65;65;
0;0;0;0;80;83;83;83;86;86;80;82;82;76;76;76;66;65;65;
0;0;0;0;80;83;83;83;86;86;80;82;82;76;76;76;66;65;65;
0;0;0;0;80;83;83;83;86;86;80;82;82;76;76;76;66;65;65;
0;0;0;0;80;83;83;84;87;87;80;81;81;76;76;76;66;65;65;
0;0;0;0;80;83;83;84;87;87;80;81;81;76;76;76;66;65;65;
0;0;0;0;80;83;83;84;87;87;80;81;81;76;76;76;66;65;65;
0;0;0;0;80;83;83;84;87;87;80;81;81;76;76;76;66;65;65;
0;0;0;0;80;83;83;84;87;87;80;81;81;76;76;76;66;65;65;
0;0;0;0;80;83;83;84;87;87;80;81;81;76;76;76;66;65;65;
0;0;0;0;80;83;83;84;87;87;80;81;81;76;76;76;66;65;65;
0;0;0;0;80;83;83;84;87;87;80;81;81;76;76;76;66;65;65;
0;0;0;0;80;83;83;84;87;87;80;81;81;76;76;76;66;65;65;
0;0;0;0;80;83;83;84;87;87;80;81;81;76;76;76;66;65;65;
0;0;0;0;80;83;83;84;87;87;80;81;81;76;76;76;66;65;65;
0;0;0;0;80;83;83;84;87;87;80;81;81;76;76;76;66;65;65;
0;0;0;0;80;83;83;84;87;87;80;81;81;76;76;76;66;65;65;
0;0;0;0;80;83;83;84;87;87;80;81;81;76;76;76;66;65;65;
0;0;0;0;80;83;83;84;87;87;80;81;81;76;76;76;66;65;65;
0;0;0;0;80;83;83;84;87;87;80;81;81;76;76;76;66;65;65;
0;0;0;0;80;83;83;84;87;87;80;81;81;76;76;76;66;65;65;
0;0;0;0;80;83;83;84;87;87;80;81;81;76;76;76;66;65;65;
0;0;0;0;79;83;83;84;87;87;80;81;81;76;76;76;66;65;65;
0;0;0;0;79;83;83;84;87;87;80;81;81;76;76;76;66;65;65;
0;0;0;0;79;83;83;84;87;87;80;81;81;76;76;76;66;65;65;
0;0;0;0;79;83;83;84;87;87;80;81;81;76;76;76;66;65;65;
0;0;0;0;79;83;83;84;87;87;80;81;81;76;76;76;66;65;65;
0;0;0;0;79;83;83;84;87;87;80;81;81;76;76;76;66;65;65;
0;0;0;0;79;83;83;84;87;87;80;81;81;76;76;76;66;65;65;
0;0;0;0;79;83;83;84;87;87;80;81;81;76;76;76;66;65;65;
0;0;0;0;79;83;83;84;87;87;80;81;81;76;76;76;66;65;65;
0;0;0;0;79;83;83;84;87;87;80;81;81;76;76;76;66;65;65;
0;0;0;0;79;83;83;84;87;87;80;81;81;76;76;76;66;65;65;
0;0;0;0;79;83;83;84;87;87;80;81;81;76;76;76;66;65;65;
0;0;0;0;79;83;83;84;87;87;80;81;81;76;76;76;66;65;65;
0;0;0;0;79;83;83;84;87;87;80;81;81;76;76;76;66;65;65;
0;0;0;0;79;83;83;84;87;87;80;81;81;76;76;76;66;65;65;
0;0;0;0;79;83;83;84;87;87;80;81;81;76;76;76;66;65;65;
0;0;0;0;79;83;83;84;87;87;80;81;81;76;76;76;66;65;65;
0;0;0;0;79;83;83;83;87;87;80;81;81;76;76;76;66;65;65;
0;0;0;0;79;83;83;83;87;87;79;81;81;76;76;76;66;65;65;
0;0;0;0;79;83;83;83;86;86;79;81;81;76;76;76;66;65;65;
0;0;0;0;79;83;83;83;86;86;79;81;81;76;76;76;66;65;65;
0;0;0;0;79;83;83;83;86;86;79;81;81;76;76;76;66;65;65;
0;0;0;0;79;83;83;83;86;86;79;81;81;76;76;76;66;65;65;
0;0;0;0;79;83;83;83;86;86;79;81;81;76;76;76;66;65;65;
0;0;0;0;79;83;83;83;86;86;79;81;81;76;76;76;66;65;65;
0;0;0;0;79;83;83;83;86;86;79;81;81;76;76;76;66;65;65;
0;0;0;0;79;83;83;83;86;86;79;81;81;76;76;76;66;65;65;
0;0;0;0;79;83;83;83;86;86;79;81;81;76;76;76;66;65;65;
0;0;0;0;79;83;83;83;86;86;79;81;81;76;76;76;66;65;65;
0;0;0;0;79;83;83;83;86;86;79;81;81;76;76;76;66;65;65;
0;0;0;0;79;83;83;83;86;86;79;81;81;76;76;76;66;65;65;
0;0;0;0;79;83;83;83;86;86;79;81;81;76;76;76;66;65;65;
0;0;0;0;79;83;83;83;86;86;79;81;81;76;76;76;66;65;65;
0;0;0;0;79;83;83;82;86;86;79;81;81;76;76;76;66;65;65;
0;0;0;0;79;83;83;82;86;86;79;81;81;76;76;76;66;65;65;
0;0;0;0;79;83;83;82;86;86;79;81;81;76;76;76;66;65;65;
0;0;0;0;79;83;83;82;86;86;79;81;81;76;76;76;66;65;65;
0;0;0;0;79;83;83;82;86;86;80;82;82;76;76;76;66;65;65;
0;0;0;0;79;83;83;82;86;86;80;82;82;76;76;76;66;65;65;
0;0;0;0;79;83;83;82;86;86;80;82;82;76;76;76;66;65;65;
0;0;0;0;79;83;83;82;86;86;80;82;82;76;76;76;66;65;65;
0;0;0;0;79;83;83;82;86;86;80;82;82;76;76;76;66;65;65;
0;0;0;0;79;83;83;82;86;86;80;82;82;76;76;76;66;65;65;
0;0;0;0;79;83;83;82;86;86;80;82;82;76;76;76;66;65;65;
0;0;0;0;79;83;83;82;86;86;80;82;82;76;76;76;66;65;65;
0;0;0;0;79;83;83;82;86;86;80;82;82;76;76;76;66;65;65;
0;0;0;0;80;83;83;82;86;86;80;82;82;76;76;76;66;65;65;
0;0;0;0;80;83;83;82;86;86;80;82;82;76;76;76;66;65;65;
0;0;0;0;80;83;83;82;86;86;80;82;82;76;76;76;66;65;65;
0;0;0;0;80;83;83;82;86;86;80;82;82;76;76;76;66;65;65;
0;0;0;0;80;83;83;82;86;86;80;82;82;76;76;76;66;65;65;
0;0;0;0;80;83;83;82;86;86;80;82;82;76;76;76;66;65;65;
0;0;0;0;80;83;83;82;86;86;80;82;82;76;76;76;66;65;65;
0;0;0;0;80;83;83;82;86;86;80;82;82;76;76;76;66;65;65;
0;0;0;0;80;83;83;82;86;86;80;82;82;76;76;76;65;64;64;
0;0;0;0;80;83;83;82;86;86;80;82;82;76;76;76;65;64;64;
0;0;0;0;80;83;83;82;86;86;80;82;82;76;76;76;65;64;64;
0;0;0;0;80;83;83;82;86;86;80;82;82;76;76;76;65;64;64;
0;0;0;0;80;83;83;82;86;86;80;82;82;76;76;76;65;64;64;
0;0;0;0;80;83;83;82;86;86;80;82;82;76;76;76;65;64;64;
0;0;0;0;80;83;83;82;86;86;80;82;82;76;76;76;65;64;64;
0;0;0;0;80;83;83;82;86;86;80;82;82;76;76;76;65;64;64;
0;0;0;0;80;83;83;82;86;86;80;82;82;76;76;76;65;64;64;
0;0;0;0;80;83;83;82;86;86;80;82;82;76;76;76;65;64;64;
0;0;0;0;80;83;83;82;86;86;80;82;82;76;76;76;65;64;64;
0;0;0;0;80;83;83;82;86;86;80;82;82;76;76;76;65;64;64;
0;0;0;0;80;83;83;82;86;86;80;82;82;76;76;76;65;64;64;
0;0;0;0;80;83;83;82;86;86;80;82;82;76;76;76;65;64;64;
0;0;0;0;80;83;83;82;86;86;80;82;82;76;76;76;65;64;64;
0;0;0;0;80;83;83;82;86;86;80;82;82;76;76;76;65;64;64;
0;0;0;0;80;83;83;82;86;86;80;82;82;76;76;76;65;64;64;
0;0;0;0;80;83;83;82;86;86;80;82;82;76;76;76;65;64;64;
0;0;0;0;80;83;83;82;86;86;80;82;82;76;76;76;65;64;64;
0;0;0;0;80;83;83;82;86;86;80;82;82;76;76;76;65;64;64;
0;0;0;0;80;83;83;82;86;86;80;82;82;76;76;76;65;64;64;
0;0;0;0;80;83;83;82;86;86;80;82;82;76;76;76;65;64;64;
0;0;0;0;80;83;83;82;86;86;80;82;82;76;76;76;65;64;64;
0;0;0;0;80;83;83;82;86;86;80;82;82;76;76;76;65;64;64;
0;0;0;0;80;83;83;82;86;86;80;82;82;76;76;76;65;64;64;
0;0;0;0;80;83;83;82;86;86;80;82;82;76;76;76;65;64;64;
0;0;0;0;80;83;83;82;86;86;80;82;82;76;76;76;65;64;64;
0;0;0;0;80;83;83;82;86;86;80;82;82;76;76;76;65;64;64;
0;0;0;0;80;83;83;82;86;86;80;82;82;76;76;76;65;64;64;
0;0;0;0;80;83;83;82;86;86;80;82;82;76;76;76;65;64;64;
0;0;0;0;80;83;83;82;86;86;80;82;82;76;76;76;65;64;64;
0;0;0;0;80;83;83;82;86;86;80;82;82;76;76;76;65;64;64;
0;0;0;0;80;83;83;82;86;86;80;82;82;76;76;76;65;64;64;
0;0;0;0;80;83;83;82;86;86;80;82;82;76;76;76;65;64;64;
0;0;0;0;80;83;83;82;86;86;80;82;82;76;76;76;65;64;64;
0;0;0;0;80;83;83;82;86;86;80;82;82;76;76;76;65;64;64;
0;0;0;0;80;83;83;82;86;86;80;82;82;76;76;76;65;64;64;
0;0;0;0;80;83;83;82;86;86;80;82;82;76;76;76;65;64;64;
0;0;0;0;80;83;83;82;86;86;80;82;82;76;76;76;65;64;64;
0;0;0;0;80;83;83;82;86;86;80;82;82;76;76;76;65;64;64;
0;0;0;0;80;83;83;82;86;86;80;82;82;76;76;76;65;64;64;
0;0;0;0;80;83;83;82;86;86;80;82;82;76;76;76;65;64;64;
0;0;0;0;80;83;83;82;86;86;80;82;82;76;76;76;65;64;64;
0;0;0;0;80;83;83;82;86;86;80;82;82;76;76;76;65;64;64;
0;0;0;0;80;83;83;82;86;86;80;82;82;76;76;76;65;64;64;
0;0;0;0;80;83;83;82;86;86;80;82;82;76;76;76;65;64;64;
0;0;0;0;80;83;83;82;86;86;80;82;82;76;76;76;65;64;64;
0;0;0;0;80;83;83;82;86;86;80;82;82;76;76;76;65;64;64;
0;0;0;0;80;83;83;82;86;86;80;82;82;76;76;76;65;64;64;
0;0;0;0;80;83;83;82;86;86;80;82;82;76;76;76;65;64;64;
0;0;0;0;80;83;83;82;86;86;80;82;82;76;76;76;65;64;64;
0;0;0;0;80;83;83;82;86;86;80;82;82;76;76;76;65;64;64;
0;0;0;0;80;83;83;82;86;86;80;82;82;76;76;76;65;64;64;
0;0;0;0;80;83;83;82;86;86;80;82;82;76;76;76;65;64;64;
0;0;0;0;80;83;83;82;86;86;80;82;82;76;76;76;65;64;64;
0;0;0;0;80;83;83;82;86;86;80;82;82;76;76;76;65;64;64;
0;0;0;0;80;83;83;82;86;86;80;82;82;76;76;76;65;64;64;
0;0;0;0;80;83;83;82;86;86;80;82;82;76;76;76;65;64;64;
0;0;0;0;80;83;83;82;86;86;80;82;82;76;76;76;65;64;64;
0;0;0;0;80;83;83;82;86;86;80;82;82;76;76;76;65;64;64;
0;0;0;0;80;83;83;82;86;86;80;82;82;76;76;76;65;64;64;
0;0;0;0;80;83;83;82;86;86;80;82;82;76;76;76;65;64;64;
0;0;0;0;80;83;83;82;86;86;80;82;82;76;76;76;65;64;64;
0;0;0;0;80;83;83;82;86;86;80;82;82;76;76;76;65;64;64;
0;0;0;0;80;83;83;82;86;86;80;82;82;76;76;76;65;64;64;
0;0;0;0;80;83;83;82;86;86;80;82;82;76;76;76;65;64;64;
0;0;0;0;80;83;83;82;86;86;80;82;82;76;76;76;65;64;64;
0;0;0;0;80;83;83;82;86;86;80;82;82;76;76;76;65;64;64;
0;0;0;0;80;83;83;82;86;86;80;82;82;76;76;76;65;64;64;
0;0;0;0;80;83;83;82;86;86;80;82;82;76;76;76;65;64;64;
0;0;0;0;80;83;83;82;86;86;80;82;82;76;76;76;65;64;64;
0;0;0;0;80;83;83;82;86;86;80;82;82;76;76;76;65;64;64;
0;0;0;0;80;83;83;82;86;86;80;82;82;76;76;76;65;64;64;
0;0;0;0;80;83;83;82;86;86;80;82;82;76;76;76;65;64;64;
0;0;0;0;80;83;83;82;86;86;80;82;82;76;76;76;65;64;64;
0;0;0;0;80;83;83;82;86;86;80;82;82;76;76;76;65;64;64;
0;0;0;0;80;83;83;82;86;86;80;82;82;76;76;76;65;64;64;
0;0;0;0;80;83;83;82;86;86;80;82;82;76;76;76;65;64;64;
0;0;0;0;80;83;83;82;86;86;80;82;82;76;76;76;65;64;64;
0;0;0;0;80;83;83;82;86;86;80;82;82;76;76;76;65;64;64;
0;0;0;0;79;83;83;83;87;87;81;82;82;76;76;76;64;63;63;
0;0;0;0;79;83;83;83;87;87;81;82;82;76;76;76;63;63;63;
0;0;0;0;79;83;83;83;87;87;81;82;82;77;76;76;63;63;63;
0;0;0;0;79;83;83;83;87;87;81;82;82;77;76;76;63;63;63;
0;0;0;0;79;83;83;83;87;87;81;82;82;77;76;76;63;63;63;
0;0;0;0;79;83;83;83;87;87;81;82;82;77;76;76;63;63;63;
0;0;0;0;79;83;83;83;87;87;81;82;82;77;77;77;63;63;63;
0;0;0;0;79;83;83;83;87;87;81;82;82;77;77;77;63;63;63;
0;0;0;0;79;83;83;83;87;87;81;82;82;77;77;77;63;63;63;
0;0;0;0;79;83;83;83;87;87;81;82;82;77;77;77;63;63;63;
0;0;0;0;79;83;83;83;87;87;81;82;82;77;77;77;63;63;63;
0;0;0;0;79;83;83;83;87;87;81;82;82;77;77;77;63;63;63;
0;0;0;0;79;83;83;83;87;87;81;82;82;77;77;77;63;63;63;
0;0;0;0;79;83;83;83;87;87;81;82;82;77;77;77;63;63;63;
0;0;0;0;79;83;83;83;87;87;81;82;82;77;77;77;63;63;63;
0;0;0;0;79;83;83;83;87;87;81;82;82;77;77;77;63;63;63;
0;0;0;0;79;83;83;83;87;87;81;82;82;77;77;77;63;63;63;
0;0;0;0;79;83;83;83;87;87;81;82;82;77;77;77;63;63;63;
0;0;0;0;79;83;83;83;87;87;81;82;82;77;77;77;63;63;63;
0;0;0;0;79;83;83;83;87;87;81;82;82;77;77;77;63;63;63;
0;0;0;0;79;83;83;83;87;87;81;82;82;77;77;77;63;63;63;
0;0;0;0;79;83;83;83;87;87;81;83;83;77;77;77;64;63;63;
0;0;0;0;79;83;83;83;87;87;81;83;83;77;77;77;64;63;63;
0;0;0;0;79;83;83;83;87;87;81;83;83;77;77;77;64;63;63;
0;0;0;0;79;83;83;83;87;87;81;83;83;77;77;77;64;63;63;
0;0;0;0;79;83;83;83;87;87;81;83;83;77;77;77;64;63;63;
0;0;0;0;79;83;83;83;87;87;81;83;83;77;77;77;64;63;63;
0;0;0;0;79;83;83;83;87;87;81;83;83;77;77;77;64;63;63;
0;0;0;0;79;83;83;83;87;87;81;83;83;77;77;77;64;63;63;
0;0;0;0;79;83;83;83;87;87;81;83;83;77;77;77;64;63;63;
0;0;0;0;79;83;83;83;87;87;81;83;83;77;77;77;64;63;63;
0;0;0;0;79;83;83;83;87;87;81;83;83;77;77;77;64;63;63;
0;0;0;0;79;83;83;83;87;87;81;83;83;77;77;77;64;63;63;
0;0;0;0;79;83;83;83;87;87;81;83;83;77;77;77;64;63;63;
0;0;0;0;79;83;83;83;87;87;81;83;83;77;77;77;64;63;63;
0;0;0;0;79;83;83;83;87;87;81;83;83;77;77;77;64;63;63;
0;0;0;0;79;83;83;83;87;87;81;83;83;77;77;77;64;63;63;
0;0;0;0;79;83;83;83;87;87;81;83;83;77;77;77;64;63;63;
0;0;0;0;79;83;83;83;87;87;81;83;83;77;77;77;64;63;63;
0;0;0;0;79;83;83;83;87;87;81;83;83;77;77;77;64;63;63;
0;0;0;0;79;83;83;83;87;87;81;83;83;77;77;77;64;63;63;
0;0;0;0;79;83;83;83;87;87;81;83;83;77;77;77;64;63;63;
0;0;0;0;79;83;83;83;87;87;81;83;83;77;77;77;64;63;63;
0;0;0;0;79;83;83;83;87;87;81;83;83;77;77;77;64;63;63;
0;0;0;0;79;83;83;83;87;87;81;83;83;77;77;77;64;63;63;
0;0;0;0;79;83;83;83;87;87;81;83;83;77;77;77;64;63;63;
0;0;0;0;79;83;83;83;87;87;81;83;83;77;77;77;64;63;63;
0;0;0;0;79;83;83;83;87;87;81;83;83;77;77;77;64;63;63;
0;0;0;0;79;83;83;83;87;87;81;83;83;77;77;77;64;63;63;
0;0;0;0;79;83;83;83;87;87;81;83;83;77;77;77;64;63;63;
0;0;0;0;79;83;83;83;87;87;81;83;83;77;77;77;64;63;63;
0;0;0;0;79;83;83;83;87;87;81;83;83;77;77;77;64;63;63;
0;0;0;0;79;83;83;83;87;87;81;83;83;77;77;77;64;63;63;
0;0;0;0;79;83;83;83;87;87;81;83;83;77;77;77;64;63;63;
0;0;0;0;79;83;83;83;87;87;81;83;83;77;77;77;64;63;63;
0;0;0;0;79;84;84;83;87;87;81;83;83;77;77;77;64;63;63;
0;0;0;0;79;84;84;83;87;87;81;83;83;77;77;77;64;63;63;
0;0;0;0;79;84;84;83;87;87;81;83;83;77;77;77;64;63;63;
0;0;0;0;79;84;84;83;87;87;81;83;83;77;77;77;64;63;63;
0;0;0;0;79;84;84;83;87;87;81;83;83;77;77;77;64;63;63;
0;0;0;0;79;84;84;83;87;87;81;83;83;77;77;77;64;63;63;
0;0;0;0;79;84;84;83;87;87;81;83;83;77;77;77;64;63;63;
0;0;0;0;79;84;84;83;87;87;81;83;83;77;77;77;64;63;63;
0;0;0;0;79;84;84;83;87;87;81;83;83;77;77;77;64;63;63;
0;0;0;0;79;84;84;83;87;87;81;83;83;77;77;77;64;63;63;
0;0;0;0;79;84;84;83;87;87;81;83;83;77;77;77;64;63;63;
0;0;0;0;79;84;84;83;87;87;81;83;83;77;77;77;64;63;63;
0;0;0;0;79;84;84;83;87;87;81;83;83;77;77;77;64;63;63;
0;0;0;0;79;84;84;83;87;87;81;83;83;77;77;77;64;63;63;
0;0;0;0;79;84;84;83;87;87;81;83;83;77;77;77;64;63;63;
0;0;0;0;79;84;84;83;87;87;81;83;83;77;77;77;64;63;63;
0;0;0;0;79;84;84;83;87;87;81;83;83;77;77;77;64;63;63;
0;0;2;1;79;84;84;83;87;87;81;83;83;77;77;77;64;63;63;
3;2;3;3;79;84;84;83;87;87;81;83;83;77;77;77;64;63;63;
3;3;3;3;79;84;84;83;87;87;81;83;83;77;77;77;64;63;63;
3;3;3;3;79;84;84;83;87;87;81;83;83;77;77;77;64;63;63;
3;3;3;3;79;84;84;83;87;87;81;82;82;77;77;77;64;64;64;
3;2;3;2;79;84;84;83;87;87;81;82;82;77;77;77;64;64;64;
2;3;3;2;79;84;84;83;87;87;81;82;82;77;77;77;64;64;64;
3;3;3;3;79;84;84;83;87;87;81;82;82;77;77;77;64;64;64;
2;2;3;2;79;84;84;83;87;87;81;82;82;77;77;77;64;64;64;
2;3;2;2;79;84;84;84;87;87;81;82;82;77;77;77;66;65;65;
2;2;2;3;79;84;84;84;87;87;81;82;82;77;77;77;66;65;65;
3;2;2;2;79;84;84;84;87;87;81;82;82;77;77;77;66;65;65;
2;3;3;3;79;84;84;84;87;87;81;82;82;77;77;77;66;65;65;
3;2;2;2;79;84;84;84;87;87;81;82;82;77;77;77;66;65;65;
3;2;2;2;79;84;84;84;87;87;81;82;82;77;77;77;66;65;65;
2;2;2;2;79;84;84;84;87;87;81;82;82;77;77;77;66;65;65;
2;2;2;3;79;84;84;84;87;87;81;82;82;77;77;77;66;65;65;
2;2;2;3;79;84;84;84;87;87;81;82;82;77;77;77;66;65;65;
2;2;3;3;79;84;84;84;87;87;81;82;82;77;77;77;66;65;65;
3;2;2;2;79;84;84;84;87;87;81;82;82;77;77;77;66;65;65;
2;3;3;3;79;84;84;84;87;87;81;82;82;77;77;77;66;65;65;
2;3;2;2;79;84;84;84;87;87;81;82;82;77;77;77;66;65;65;
3;2;2;2;79;84;84;84;87;87;81;82;82;77;77;77;66;65;65;
3;2;2;3;79;84;84;84;87;87;81;82;82;77;77;77;66;65;65;
3;2;2;2;79;84;84;84;87;87;80;82;82;77;77;77;67;66;66;
3;3;3;3;79;84;84;84;87;87;80;82;82;77;77;77;67;66;66;
2;2;3;2;79;84;84;84;87;87;80;82;82;77;77;77;67;66;66;
2;2;2;2;79;84;84;84;87;87;80;82;82;77;77;77;67;66;66;
2;2;2;2;79;84;84;84;87;87;80;82;82;77;77;77;67;66;66;
3;3;2;2;79;84;84;84;87;87;80;82;82;77;77;77;67;66;66;
3;3;2;2;79;84;84;84;87;87;80;82;82;77;77;77;67;66;66;
3;3;2;3;79;84;84;84;87;87;80;82;82;77;77;77;67;66;66;
3;2;3;2;79;84;84;84;87;87;80;82;82;77;77;77;67;66;66;
3;2;2;2;79;84;84;84;87;87;80;82;82;77;77;77;67;66;66;
3;2;3;3;79;84;84;84;87;87;80;82;82;77;77;77;67;66;66;
2;2;2;2;79;84;84;84;87;87;80;82;82;77;77;77;67;66;66;
3;3;2;2;79;84;84;84;87;87;80;82;82;77;77;77;67;66;66;
3;2;2;3;79;84;84;84;87;87;80;82;82;77;77;77;67;66;66;
3;2;2;2;79;84;84;84;87;87;80;82;82;77;77;77;67;66;66;
2;2;2;3;79;84;84;84;87;87;80;82;82;77;77;77;67;66;66;
3;3;3;3;79;84;84;84;87;87;80;82;82;77;77;77;67;66;66;
3;2;3;2;79;84;84;84;87;87;80;82;82;77;77;77;67;66;66;
2;2;3;3;79;84;84;84;87;87;80;82;82;77;77;77;67;66;66;
2;2;2;2;79;84;84;84;87;87;80;82;82;77;77;77;67;66;66;
2;3;3;2;79;84;84;84;87;87;80;82;82;77;77;77;67;66;66;
2;3;2;2;79;84;84;84;87;87;80;82;82;77;77;77;67;66;66;
3;3;3;2;79;84;84;84;87;87;80;82;82;77;77;77;67;66;66;
3;2;2;3;79;84;84;84;87;87;80;82;82;77;77;77;67;66;66;
3;2;2;3;79;84;84;84;87;87;80;82;82;77;77;77;67;66;66;
2;3;2;3;79;84;84;84;87;87;80;82;82;77;77;77;67;66;66;
3;3;2;2;79;84;84;84;87;87;80;82;82;77;77;77;67;66;66;
2;3;2;2;79;84;84;84;87;87;80;82;82;77;77;77;67;66;66;
2;3;2;2;79;84;84;84;87;87;80;82;82;77;77;77;67;66;66;
2;2;2;3;79;84;84;84;87;87;80;82;82;77;77;77;67;66;66;
3;3;2;2;79;84;84;84;87;87;80;82;82;77;77;77;67;66;66;
2;3;3;3;79;84;84;84;87;87;80;82;82;77;77;77;67;66;66;
3;2;2;2;79;84;84;84;87;87;80;82;82;77;77;77;67;66;66;
2;2;2;2;79;84;84;84;87;87;80;82;82;77;77;77;67;66;66;
2;2;2;2;79;84;84;84;87;87;80;82;82;77;77;77;67;66;66;
2;2;2;2;79;84;84;84;87;87;80;82;82;77;77;77;67;66;66;
2;3;2;2;79;84;84;84;88;88;80;82;82;77;77;77;67;66;66;
2;2;2;2;79;84;84;84;88;88;80;82;82;77;77;77;67;66;66;
3;3;3;2;79;84;84;84;88;88;80;82;82;77;77;77;67;66;66;
3;2;3;2;79;84;84;84;88;88;80;82;82;77;77;77;67;66;66;
2;3;2;2;79;84;84;84;88;88;80;82;82;77;77;77;67;66;66;
2;2;2;2;79;84;84;84;88;88;80;82;82;77;77;77;67;66;66;
2;3;2;2;79;84;84;84;88;88;80;82;82;77;77;77;67;66;66;
3;3;2;2;79;84;84;84;88;88;80;82;82;77;77;77;67;66;66;
2;2;3;2;79;84;84;84;88;88;80;82;82;77;77;77;67;66;66;
2;3;2;2;79;84;84;84;88;88;80;82;82;77;77;77;67;66;66;
2;2;3;2;79;84;84;84;88;88;80;82;82;77;77;77;67;66;66;
3;2;2;2;79;84;84;84;88;88;80;82;82;77;77;77;67;66;66;
2;3;3;3;79;84;84;84;88;88;80;82;82;77;77;77;67;66;66;
3;3;2;2;79;84;84;84;88;88;80;82;82;77;77;77;67;66;66;
2;3;3;2;79;84;84;84;88;88;80;82;82;77;77;77;67;66;66;
3;2;2;2;79;84;84;84;88;88;80;82;82;77;77;77;67;66;66;
3;2;2;3;79;84;84;84;88;88;80;82;82;77;77;77;67;66;66;
3;3;2;3;79;84;84;84;88;88;80;82;82;77;77;77;67;66;66;
2;2;3;3;79;84;84;84;88;88;80;82;82;77;77;77;67;66;66;
3;2;3;2;79;84;84;84;88;88;80;82;82;77;77;77;67;66;66;
2;2;2;3;79;84;84;84;88;88;80;82;82;77;77;77;67;66;66;
2;3;2;2;79;84;84;84;88;88;80;82;82;77;77;77;67;66;66;
2;2;2;2;79;84;84;84;88;88;80;82;82;77;77;77;67;66;66;
2;2;3;2;79;84;84;84;88;88;80;82;82;77;77;77;67;66;66;
2;3;2;2;79;84;84;84;88;88;80;82;82;77;77;77;67;66;66;
2;2;2;2;80;84;84;84;88;88;79;82;82;78;77;77;67;67;67;
2;2;3;2;80;84;84;84;88;88;79;82;82;78;77;77;67;67;67;
2;2;3;3;80;84;84;84;88;88;79;82;82;78;77;77;67;67;67;
2;2;2;2;80;84;84;84;88;88;79;82;82;78;77;77;67;67;67;
2;2;2;2;80;84;84;84;88;88;79;82;82;78;77;77;67;67;67;
2;2;2;2;80;84;84;83;87;87;79;82;82;78;77;77;68;67;67;
2;2;3;2;80;84;84;83;87;87;79;82;82;78;77;77;68;67;67;
2;2;2;2;80;84;84;83;87;87;79;82;82;78;77;77;68;67;67;
2;2;2;2;80;84;84;83;87;87;79;82;82;78;77;77;68;67;67;
2;2;2;2;80;84;84;83;87;87;79;82;82;78;77;77;68;67;67;
2;3;3;2;80;84;84;83;87;87;79;82;82;78;77;77;68;67;67;
2;2;2;2;80;84;84;83;87;87;79;82;82;78;77;77;68;67;67;
2;2;2;2;80;84;84;83;87;87;79;82;82;78;77;77;68;67;67;
2;2;2;2;80;84;84;83;87;87;79;82;82;78;77;77;68;67;67;
2;2;2;2;80;84;84;83;87;87;79;82;82;78;77;77;68;67;67;
2;2;2;2;80;84;84;83;87;87;79;82;82;78;77;77;68;67;67;
2;2;2;3;80;84;84;83;87;87;79;82;82;78;77;77;68;67;67;
3;2;2;2;80;84;84;83;87;87;79;82;82;78;77;77;68;67;67;
2;2;3;2;80;84;84;83;87;87;79;82;82;78;77;77;68;67;67;
2;2;2;2;80;84;84;83;87;87;79;82;82;78;77;77;68;67;67;
2;2;2;2;80;84;84;83;87;87;79;82;82;78;77;77;68;67;67;
2;2;2;2;80;84;84;83;87;87;79;82;82;78;77;77;68;67;67;
2;2;2;2;80;84;84;83;87;87;79;82;82;78;77;77;68;67;67;
2;2;2;2;80;84;84;83;87;87;79;82;82;78;77;77;68;67;67;
2;2;2;2;80;84;84;83;87;87;79;82;82;78;77;77;68;67;67;
2;2;2;2;80;84;84;83;87;87;79;82;82;78;77;77;68;67;67;
2;2;2;2;80;84;84;83;87;87;79;82;82;78;77;77;68;67;67;
2;2;2;2;80;84;84;83;87;87;79;82;82;78;77;77;68;67;67;
2;2;2;2;80;84;84;83;87;87;79;82;82;78;77;77;68;67;67;
2;2;2;2;80;84;84;83;87;87;79;82;82;78;77;77;68;67;67;
2;2;2;2;80;84;84;83;87;87;79;82;82;78;77;77;68;67;67;
1;1;1;1;80;84;84;83;87;87;79;82;82;78;77;77;68;67;67;
1;1;1;1;80;84;84;83;87;87;79;82;82;78;77;77;68;67;67;
1;1;1;1;80;84;84;83;87;87;79;82;82;78;77;77;68;67;67;
1;1;0;0;80;84;84;83;87;87;79;82;82;78;77;77;68;67;67;
0;0;0;0;80;84;84;83;87;87;79;82;82;78;77;77;68;67;67;
0;0;0;0;80;84;84;83;87;87;79;82;82;78;77;77;68;67;67;
0;0;0;0;80;84;84;83;87;87;79;82;82;78;77;77;68;67;67;
0;0;0;0;80;84;84;83;87;87;79;82;82;78;77;77;68;67;67;
0;0;0;0;80;84;84;83;87;87;79;82;82;78;77;77;68;67;67;
0;0;0;0;80;84;84;83;87;87;79;82;82;78;77;77;68;67;67;
0;0;0;0;80;84;84;83;87;87;79;82;82;78;77;77;68;67;67;
0;0;0;0;80;84;84;84;88;88;79;82;82;78;77;77;68;67;67;
0;0;0;0;80;84;84;83;88;88;79;82;82;78;77;77;68;67;67;
0;0;0;0;79;84;84;83;87;87;79;82;82;78;78;78;68;67;67;
0;0;0;0;79;84;84;83;87;87;79;82;82;78;78;78;68;67;67;
0;0;0;0;79;84;84;83;87;87;79;82;82;78;78;78;68;67;67;
0;0;0;0;79;84;84;83;87;87;79;82;82;78;78;78;68;67;67;
0;0;0;0;79;84;84;83;87;87;79;82;82;78;78;78;68;67;67;
0;0;0;0;79;84;84;83;87;87;79;82;82;78;78;78;68;67;67;
0;0;0;0;79;84;84;83;87;87;79;82;82;78;78;78;68;67;67;
0;0;0;0;79;84;84;83;87;87;79;82;82;78;78;78;68;67;67;
0;0;0;0;79;84;84;83;87;87;79;82;82;78;78;78;68;67;67;
0;0;0;0;79;84;84;83;87;87;79;82;82;78;78;78;68;67;67;
0;0;0;0;79;84;84;83;87;87;79;82;82;78;78;78;68;67;67;
0;0;0;0;79;84;84;83;87;87;79;82;82;78;78;78;68;67;67;
0;0;0;0;79;84;84;83;87;87;79;82;82;78;78;78;68;67;67;
0;0;0;0;79;84;84;83;87;87;79;82;82;78;78;78;68;67;67;
0;0;0;0;79;84;84;83;87;87;79;82;82;78;78;78;68;67;67;
0;0;0;0;79;84;84;83;87;87;79;82;82;78;78;78;68;67;67;
0;0;0;0;79;84;84;83;87;87;79;82;82;78;78;78;68;67;67;
0;0;0;0;79;84;84;83;87;87;79;82;82;78;78;78;68;67;67;
0;0;0;0;79;84;84;83;87;87;79;82;82;78;78;78;68;67;67;
0;0;0;0;79;84;84;83;87;87;79;82;82;78;78;78;68;67;67;
0;0;0;0;79;84;84;83;87;87;79;82;82;78;78;78;68;67;67;
0;0;0;0;79;84;84;83;87;87;79;82;82;78;78;78;68;67;67;
0;0;0;0;79;84;84;83;87;87;79;82;82;78;78;78;68;67;67;
0;0;0;0;79;84;84;83;87;87;79;82;82;78;78;78;68;67;67;
0;0;0;0;79;84;84;83;87;87;79;82;82;78;78;78;68;67;67;
0;0;0;0;79;84;84;83;87;87;79;82;82;78;78;78;68;67;67;
0;0;0;0;79;84;84;83;87;87;79;82;82;78;78;78;68;67;67;
0;0;0;0;79;84;84;83;87;87;79;82;82;78;78;78;68;67;67;
0;0;0;0;79;84;84;83;87;87;79;82;82;78;78;78;68;67;67;
0;0;0;0;79;84;84;83;87;87;79;82;82;78;78;78;68;67;67;
0;0;0;0;79;84;84;83;87;87;79;82;82;78;78;78;68;67;67;
0;0;0;0;79;84;84;83;87;87;79;82;82;78;78;78;68;67;67;
0;0;0;0;79;84;84;83;87;87;79;82;82;78;78;78;68;67;67;
0;0;0;0;79;84;84;83;87;87;79;82;82;78;78;78;68;67;67;
0;0;0;0;79;84;84;83;87;87;79;82;82;78;78;78;68;67;67;
0;0;0;0;79;84;84;83;87;87;79;82;82;78;78;78;68;67;67;
0;0;0;0;79;84;84;83;87;87;79;82;82;78;78;78;68;67;67;
0;0;0;0;79;84;84;83;87;87;79;82;82;78;78;78;68;67;67;
0;0;0;0;79;84;84;83;87;87;79;82;82;78;78;78;68;67;67;
0;0;0;0;79;84;84;83;87;87;79;82;82;78;78;78;68;67;67;
0;0;0;0;79;84;84;83;87;87;79;82;82;78;78;78;68;67;67;
0;0;0;0;79;84;84;83;87;87;79;82;82;78;78;78;68;67;67;
0;0;0;0;79;84;84;83;87;87;79;82;82;78;78;78;68;67;67;
0;0;0;0;79;84;84;83;87;87;79;82;82;78;78;78;68;67;67;
0;0;0;0;79;84;84;83;87;87;79;82;82;78;78;78;68;67;67;
0;0;0;0;79;84;84;83;87;87;79;82;82;78;78;78;68;67;67;
0;0;0;0;79;84;84;83;87;87;79;82;82;78;78;78;68;67;67;
0;0;0;0;79;84;84;83;87;87;79;82;82;78;78;78;68;67;67;
0;0;0;0;79;84;84;83;87;87;79;82;82;78;78;78;68;67;67;
0;0;0;0;79;84;84;83;87;87;79;82;82;78;78;78;68;67;67;
0;0;0;0;79;84;84;83;87;87;79;82;82;78;78;78;68;67;67;
0;0;0;0;79;84;84;83;87;87;79;82;82;78;78;78;68;67;67;
0;0;0;0;79;84;84;83;87;87;79;82;82;78;78;78;68;67;67;
0;0;0;0;79;84;84;83;87;87;78;82;82;78;78;78;68;67;67;
0;0;0;0;79;84;84;83;87;87;78;82;82;78;78;78;68;67;67;
0;0;0;0;79;84;84;83;87;87;78;82;82;78;78;78;68;67;67;
0;0;0;0;79;84;84;83;87;87;78;82;82;78;78;78;68;67;67;
0;0;0;0;79;84;84;83;87;87;78;82;82;78;78;78;68;67;67;
0;0;0;0;79;84;84;83;87;87;78;82;82;78;78;78;68;67;67;
0;0;0;0;79;84;84;83;87;87;78;82;82;78;78;78;68;67;67;
0;0;0;0;79;84;84;83;87;87;78;82;82;78;78;78;68;67;67;
0;0;0;0;79;84;84;83;87;87;78;82;82;78;78;78;68;67;67;
0;0;0;0;79;84;84;83;87;87;78;82;82;78;78;78;68;67;67;
0;0;0;0;79;84;84;82;87;87;79;82;82;78;78;78;68;67;67;
0;0;0;0;79;84;84;82;87;87;79;82;82;78;78;78;68;67;67;
0;0;0;0;79;84;84;82;87;87;79;82;82;78;78;78;68;67;67;
0;0;0;0;79;84;84;82;87;87;79;82;82;78;78;78;68;67;67;
0;0;0;0;79;84;84;82;87;87;79;82;82;78;78;78;68;67;67;
0;0;0;0;79;84;84;82;87;87;79;82;82;78;78;78;68;67;67;
0;0;0;0;79;84;84;82;87;87;79;82;82;78;78;78;68;67;67;
0;0;0;0;79;84;84;82;87;87;79;82;82;78;78;78;68;67;67;
0;0;0;0;79;84;84;82;87;87;79;82;82;78;78;78;68;67;67;
0;0;0;0;79;84;84;82;87;87;79;82;82;78;78;78;68;67;67;
0;0;0;0;79;84;84;82;87;87;79;82;82;78;78;78;68;67;67;
0;0;0;0;79;84;84;82;87;87;79;82;82;78;78;78;68;67;67;
0;0;0;0;79;84;84;82;87;87;79;82;82;78;78;78;68;67;67;
0;0;0;0;79;84;84;82;87;87;79;82;82;78;78;78;68;67;67;
0;0;0;0;79;84;84;82;87;87;79;82;82;78;78;78;68;67;67;
0;0;0;0;79;84;84;82;87;87;78;82;82;78;78;78;67;67;67;
0;0;0;0;79;84;84;82;87;87;78;82;82;78;78;78;67;67;67;
0;0;0;0;79;84;84;82;87;87;78;82;82;78;78;78;67;67;67;
0;0;0;0;79;84;84;82;87;87;78;82;82;78;78;78;67;67;67;
0;0;0;0;79;84;84;82;87;87;78;82;82;78;78;78;67;67;67;
0;0;0;0;79;84;84;82;87;87;78;82;82;78;78;78;67;67;67;
0;0;0;0;79;84;84;82;87;87;78;82;82;78;78;78;67;67;67;
0;0;0;0;79;84;84;82;87;87;78;82;82;78;78;78;67;67;67;
0;0;0;0;79;84;84;82;87;87;78;82;82;78;78;78;67;67;67;
0;0;0;0;79;84;84;82;87;87;78;82;82;78;78;78;67;67;67;
0;0;0;0;79;84;84;82;87;87;78;82;82;78;78;78;67;67;67;
0;0;0;0;79;84;84;82;87;87;78;82;82;78;78;78;67;67;67;
0;0;0;0;79;84;84;82;87;87;78;82;82;78;78;78;67;67;67;
0;0;0;0;79;84;84;82;87;87;78;82;82;78;78;78;67;67;67;
0;0;0;0;79;84;84;82;87;87;78;82;82;78;78;78;67;67;67;
0;0;0;0;79;84;84;82;87;87;78;82;82;78;78;78;67;67;67;
0;0;0;0;79;84;84;82;87;87;78;82;82;78;78;78;67;67;67;
0;0;0;0;79;84;84;82;87;87;78;82;82;78;78;78;67;67;67;
0;0;0;0;79;84;84;82;87;87;78;82;82;78;78;78;67;67;67;
0;0;0;0;79;84;84;82;87;87;78;82;82;78;78;78;67;67;67;
0;0;0;0;79;84;84;82;87;87;78;82;82;78;78;78;67;67;67;
0;0;0;0;79;84;84;82;87;87;78;82;82;78;78;78;67;67;67;
0;0;0;0;79;84;84;82;87;87;78;82;82;78;78;78;67;67;67;
0;0;0;0;79;84;84;82;87;87;78;82;82;78;78;78;67;67;67;
0;0;0;0;79;84;84;82;87;87;78;82;82;78;78;78;67;67;67;
0;0;0;0;79;84;84;82;87;87;78;82;82;78;78;78;67;67;67;
0;0;0;0;79;84;84;82;87;87;78;82;82;78;78;78;67;67;67;
0;0;0;0;79;84;84;82;87;87;78;82;82;78;78;78;67;67;67;
0;0;0;0;79;84;84;82;87;87;78;82;82;78;78;78;67;67;67;
0;0;0;0;79;84;84;82;87;87;78;82;82;78;78;78;67;67;67;
0;0;0;0;79;84;84;82;87;87;78;82;82;78;78;78;67;67;67;
0;0;0;0;79;84;84;82;87;87;78;82;82;78;78;78;67;67;67;
0;0;0;0;79;84;84;82;87;87;78;82;82;78;78;78;67;67;67;
0;0;0;0;79;84;84;82;87;87;78;81;81;79;78;78;67;67;67;
0;0;0;0;79;84;84;82;87;87;78;81;81;79;78;78;67;67;67;
0;0;0;0;79;84;84;82;87;87;78;81;81;79;78;78;67;67;67;
0;0;0;0;79;84;84;82;87;87;78;81;81;79;78;78;67;67;67;
0;0;0;0;79;84;84;82;87;87;78;81;81;79;78;78;67;67;67;
0;0;0;0;79;84;84;82;87;87;78;81;81;79;78;78;67;67;67;
0;0;0;0;79;84;84;82;87;87;78;81;81;79;78;78;67;67;67;
0;0;0;0;79;84;84;82;87;87;78;81;81;79;78;78;67;67;67;
0;0;0;0;79;84;84;82;87;87;78;81;81;79;78;78;67;67;67;
0;0;0;0;79;84;84;82;87;87;78;81;81;79;78;78;67;67;67;
0;0;0;0;79;84;84;82;87;87;78;81;81;79;78;78;67;67;67;
0;0;0;0;79;84;84;82;87;87;78;81;81;79;78;78;67;67;67;
0;0;0;0;79;84;84;82;87;87;78;81;81;79;78;78;67;67;67;
0;0;0;0;79;84;84;81;87;87;78;81;81;79;78;78;67;66;66;
0;0;0;0;79;84;84;81;87;87;78;81;81;79;79;79;67;66;66;
0;0;0;0;79;84;84;81;87;87;78;81;81;79;79;79;67;66;66;
0;0;0;0;80;85;85;82;87;87;78;81;81;79;79;79;67;66;66;
0;0;0;0;80;86;86;81;86;86;78;81;81;79;79;79;67;66;66;
0;0;0;0;80;86;86;81;86;86;78;81;81;79;79;79;67;66;66;
0;0;0;0;80;86;86;81;86;86;78;81;81;79;79;79;67;66;66;
0;0;0;0;80;86;86;81;86;86;78;81;81;79;79;79;67;66;66;
0;0;0;0;80;86;86;81;86;86;78;81;81;79;79;79;67;66;66;
0;0;0;0;80;86;86;81;86;86;78;81;81;79;79;79;67;66;66;
0;0;0;0;80;86;86;81;86;86;78;81;81;79;79;79;66;65;65;
0;0;0;0;80;86;86;81;86;86;78;81;81;79;79;79;66;65;65;
0;0;0;0;80;86;86;81;86;86;78;81;81;79;79;79;66;65;65;
0;0;0;0;80;86;86;81;86;86;78;81;81;79;79;79;66;65;65;
0;0;0;0;80;86;86;81;86;86;78;81;81;79;79;79;66;65;65;
0;0;0;0;81;86;86;81;86;86;78;81;81;79;78;78;65;65;65;
0;0;0;0;81;86;86;81;86;86;78;81;81;79;78;78;65;65;65;
0;0;0;0;81;86;86;81;86;86;78;81;81;79;78;78;65;65;65;
0;0;0;0;81;86;86;81;86;86;78;81;81;79;78;78;65;65;65;
0;0;0;0;81;86;86;81;86;86;78;81;81;79;78;78;65;65;65;
0;0;0;0;81;86;86;81;86;86;78;81;81;79;78;78;65;65;65;
0;0;0;0;81;86;86;81;86;86;78;81;81;79;78;78;65;65;65;
0;0;0;0;81;86;86;81;86;86;78;81;81;79;78;78;65;65;65;
0;0;0;0;81;86;86;81;86;86;78;81;81;79;78;78;65;65;65;
0;0;0;0;81;86;86;81;86;86;78;81;81;79;78;78;65;65;65;
0;0;0;0;81;86;86;81;86;86;78;81;81;79;78;78;65;65;65;
0;0;0;0;81;86;86;82;86;86;78;81;81;79;78;78;65;64;64;
0;0;0;0;81;86;86;82;86;86;78;81;81;79;78;78;65;64;64;
0;0;0;0;81;86;86;82;86;86;78;81;81;79;78;78;65;64;64;
0;0;0;0;81;86;86;82;86;86;78;81;81;79;78;78;65;64;64;
0;0;0;0;81;86;86;82;86;86;78;81;81;79;78;78;65;64;64;
0;0;0;0;81;86;86;82;86;86;78;81;81;79;78;78;65;64;64;
0;0;0;0;81;86;86;82;86;86;78;81;81;79;78;78;65;64;64;
0;0;0;0;81;86;86;82;86;86;78;81;81;79;78;78;65;64;64;
0;0;0;0;81;86;86;82;86;86;78;81;81;79;78;78;65;64;64;
0;0;0;0;81;86;86;82;86;86;78;81;81;79;78;78;65;64;64;
0;0;0;0;81;86;86;82;86;86;78;81;81;79;78;78;65;64;64;
0;0;0;0;81;86;86;82;86;86;78;81;81;79;78;78;65;64;64;
0;0;0;0;81;86;86;82;86;86;78;81;81;79;78;78;65;64;64;
0;0;0;0;81;86;86;82;86;86;78;81;81;79;78;78;65;64;64;
0;0;0;0;81;86;86;82;86;86;78;81;81;79;78;78;65;64;64;
0;0;0;0;81;86;86;82;86;86;78;81;81;79;78;78;65;64;64;
0;0;0;0;81;86;86;82;86;86;78;81;81;79;78;78;65;64;64;
0;0;0;0;81;86;86;82;86;86;78;81;81;79;78;78;65;64;64;
0;0;0;0;81;86;86;82;86;86;78;81;81;79;78;78;65;64;64;
0;0;0;0;81;86;86;82;86;86;78;81;81;79;78;78;65;64;64;
0;0;0;0;81;86;86;82;86;86;78;81;81;79;78;78;65;64;64;
0;0;0;0;81;86;86;82;86;86;78;81;81;79;78;78;65;64;64;
0;0;0;0;81;86;86;82;86;86;78;81;81;79;78;78;65;64;64;
0;0;0;0;81;86;86;82;86;86;78;81;81;79;78;78;65;64;64;
0;0;0;0;81;86;86;82;86;86;78;81;81;79;78;78;65;64;64;
0;0;0;0;81;86;86;82;86;86;78;81;81;79;78;78;65;64;64;
0;0;0;0;81;86;86;82;86;86;78;81;81;79;78;78;65;64;64;
0;0;0;0;81;86;86;82;86;86;78;81;81;79;78;78;65;64;64;
0;0;0;0;81;86;86;82;86;86;78;81;81;79;78;78;65;64;64;
0;0;0;0;81;86;86;82;86;86;78;81;81;79;78;78;65;64;64;
0;0;0;0;81;86;86;82;86;86;78;81;81;79;78;78;65;64;64;
0;0;0;0;81;86;86;82;86;86;78;81;81;79;78;78;65;64;64;
0;0;0;0;81;86;86;82;86;86;78;81;81;79;78;78;65;64;64;
0;0;0;0;81;86;86;82;86;86;78;81;81;79;78;78;65;64;64;
0;0;0;0;81;86;86;82;86;86;78;81;81;79;78;78;65;64;64;
0;0;0;0;81;86;86;82;86;86;78;81;81;79;78;78;65;64;64;
0;0;0;0;81;86;86;82;86;86;78;81;81;79;78;78;65;64;64;
0;0;0;0;81;86;86;82;86;86;78;81;81;79;78;78;65;64;64;
0;0;0;0;81;86;86;82;86;86;78;81;81;79;78;78;65;64;64;
0;0;0;0;83;86;86;82;86;86;78;80;80;78;78;78;64;63;63;
