## File generated by myo_cap software 
## Available from github.com/ddantas/myo_cap 
## Timestamp: 2019-02-04_16-23-06 
##  
## EMG capture settings 
##  
# sampleRate: 2000 
# channelsPerBoard: 4 
# nBoards: 1 
# bitsPerSample: 12 
# ch/%d;%d;%d;%d;lp/%d;%d;%d;%d;%d;%d;%d;%d;%d;%d;%d;%d;%d;%d;%d;
0;0;0;0;91;98;98;5;18;18;8;24;24;8;21;21;53;69;69;
0;0;0;0;91;98;98;5;18;18;8;24;24;8;21;21;53;69;69;
0;0;0;0;92;98;98;4;17;17;7;22;22;7;20;20;51;67;67;
0;0;0;0;92;98;98;4;17;17;7;22;22;7;20;20;51;67;67;
0;0;0;0;92;98;98;4;17;17;7;22;22;7;20;20;51;67;67;
0;0;0;0;92;98;98;4;17;17;7;22;22;7;20;20;51;67;67;
0;0;0;0;92;98;98;4;17;17;7;22;22;7;20;20;51;67;67;
0;0;0;0;92;98;98;4;17;17;7;22;22;7;20;20;51;67;67;
0;0;0;0;92;98;98;4;17;17;7;22;22;7;20;20;51;67;67;
0;0;0;0;92;98;98;4;17;17;7;22;22;7;20;20;51;67;67;
0;0;0;0;93;98;98;4;18;18;6;22;22;7;19;19;49;65;65;
0;0;0;0;93;98;98;4;18;18;6;22;22;7;19;19;49;65;65;
0;0;0;0;93;98;98;4;18;18;6;22;22;7;19;19;49;65;65;
0;0;0;0;93;98;98;4;18;18;6;22;22;7;19;19;49;65;65;
0;0;0;0;93;98;98;4;18;18;6;22;22;7;19;19;49;65;65;
0;0;0;0;93;98;98;4;18;18;6;22;22;7;19;19;49;65;65;
0;0;0;0;93;98;98;4;18;18;6;22;22;7;19;19;49;65;65;
0;0;0;0;93;98;98;4;18;18;6;22;22;7;19;19;49;65;65;
0;0;0;0;93;98;98;4;18;18;6;22;22;7;19;19;49;65;65;
0;0;0;0;93;98;98;4;18;18;6;22;22;7;19;19;49;65;65;
0;0;0;0;93;98;98;4;18;18;6;22;22;7;19;19;49;65;65;
0;0;0;0;93;98;98;4;18;18;6;22;22;7;19;19;49;65;65;
0;0;0;0;93;98;98;4;18;18;6;22;22;7;19;19;49;65;65;
0;0;0;0;93;98;98;3;16;16;5;20;20;5;17;17;46;62;62;
0;0;0;0;93;98;98;3;16;16;5;20;20;5;17;17;46;62;62;
0;0;0;0;93;98;98;3;16;16;5;20;20;5;17;17;46;62;62;
0;0;0;0;94;98;98;2;15;15;4;18;18;4;16;16;43;60;60;
0;0;0;0;94;98;98;2;15;15;4;18;18;4;16;16;43;60;60;
0;0;0;0;94;98;98;2;15;15;4;18;18;4;16;16;43;60;60;
0;0;0;0;94;98;98;2;15;15;4;18;18;4;16;16;43;60;60;
0;0;0;0;94;98;98;2;15;15;4;18;18;4;16;16;43;60;60;
0;0;0;0;94;98;98;2;15;15;4;18;18;4;16;16;43;60;60;
0;0;0;0;94;98;98;2;15;15;4;18;18;4;16;16;43;60;60;
0;0;0;0;94;98;98;2;15;15;4;18;18;4;16;16;43;60;60;
0;0;0;0;94;98;98;2;15;15;4;18;18;4;16;16;43;60;60;
0;0;0;0;94;98;98;2;15;15;4;18;18;4;16;16;43;60;60;
0;0;0;0;94;98;98;2;15;15;4;18;18;4;16;16;43;60;60;
0;0;0;0;94;98;98;2;15;15;4;18;18;4;16;16;43;60;60;
0;0;0;0;94;98;98;2;15;15;4;18;18;4;16;16;43;60;60;
0;0;0;0;94;98;98;2;15;15;4;18;18;4;16;16;43;60;60;
0;0;0;0;94;98;98;2;15;15;4;18;18;4;16;16;43;60;60;
0;0;0;0;94;98;98;2;15;15;4;18;18;4;16;16;43;60;60;
0;0;0;0;94;98;98;2;15;15;4;18;18;4;16;16;43;60;60;
0;0;0;0;94;98;98;2;15;15;4;18;18;4;16;16;43;60;60;
0;0;0;0;94;98;98;2;15;15;4;18;18;4;16;16;43;60;60;
0;0;0;0;95;97;97;1;13;13;2;15;15;2;13;13;38;55;55;
0;0;0;0;95;97;97;1;13;13;2;15;15;2;13;13;38;55;55;
0;0;0;0;95;97;97;1;13;13;2;15;15;2;13;13;38;55;55;
0;0;0;0;95;97;97;1;13;13;2;15;15;2;13;13;38;55;55;
0;0;0;0;95;97;97;1;13;13;2;15;15;2;13;13;38;55;55;
0;0;0;0;95;97;97;1;13;13;2;15;15;2;13;13;38;55;55;
0;0;0;0;95;97;97;1;13;13;2;15;15;2;13;13;38;55;55;
0;0;0;0;95;97;97;1;13;13;2;15;15;2;13;13;38;55;55;
0;0;0;0;95;97;97;1;13;13;2;15;15;2;13;13;38;55;55;
0;0;0;0;95;97;97;1;13;13;2;15;15;2;13;13;38;55;55;
0;0;0;0;95;97;97;1;13;13;2;15;15;2;13;13;38;55;55;
0;0;0;0;95;97;97;1;13;13;2;15;15;2;13;13;38;55;55;
0;0;0;0;95;97;97;1;13;13;2;15;15;2;13;13;38;55;55;
0;0;0;0;95;97;97;1;13;13;2;15;15;2;13;13;38;55;55;
0;0;0;0;95;97;97;1;13;13;2;15;15;2;13;13;38;55;55;
0;0;0;0;95;97;97;1;13;13;2;15;15;2;13;13;38;55;55;
0;0;0;0;95;97;97;1;13;13;2;15;15;2;13;13;38;55;55;
0;0;0;0;95;97;97;1;13;13;2;15;15;2;13;13;38;55;55;
0;0;0;0;95;97;97;1;13;13;2;15;15;2;13;13;38;55;55;
0;0;0;0;95;97;97;1;13;13;2;15;15;2;13;13;38;55;55;
0;0;0;0;95;97;97;1;13;13;2;15;15;2;13;13;38;55;55;
0;0;0;0;95;97;97;1;13;13;2;15;15;2;13;13;38;55;55;
0;0;0;0;95;97;97;1;13;13;2;15;15;2;13;13;38;55;55;
0;0;0;0;95;97;97;1;13;13;2;15;15;2;13;13;38;55;55;
0;0;0;0;95;97;97;1;13;13;2;15;15;2;13;13;38;55;55;
0;0;0;0;95;97;97;1;13;13;2;15;15;2;13;13;38;55;55;
0;0;0;0;95;97;97;1;13;13;2;15;15;2;13;13;38;55;55;
0;0;0;0;95;97;97;1;13;13;2;15;15;2;13;13;38;55;55;
0;0;0;0;95;97;97;1;13;13;2;15;15;2;13;13;38;55;55;
0;0;0;0;95;97;97;1;13;13;2;15;15;2;13;13;38;55;55;
0;0;0;0;95;97;97;1;13;13;2;15;15;2;13;13;38;55;55;
0;0;0;0;95;97;97;1;13;13;2;15;15;2;13;13;38;55;55;
0;0;0;0;95;97;97;1;13;13;2;15;15;2;13;13;38;55;55;
0;0;0;0;95;97;97;1;13;13;2;15;15;2;13;13;38;55;55;
0;0;0;0;95;97;97;1;13;13;2;15;15;2;13;13;38;55;55;
0;0;0;0;95;97;97;1;13;13;2;15;15;2;13;13;38;55;55;
0;0;0;0;95;97;97;1;13;13;2;15;15;2;13;13;38;55;55;
0;0;0;0;95;97;97;1;13;13;2;15;15;2;13;13;38;55;55;
0;0;0;0;95;97;97;1;13;13;2;15;15;2;13;13;38;55;55;
0;0;0;0;95;97;97;1;13;13;2;15;15;2;13;13;38;55;55;
0;0;0;0;95;97;97;1;13;13;2;15;15;2;13;13;38;55;55;
0;0;0;0;95;97;97;1;13;13;2;15;15;2;13;13;38;55;55;
0;0;0;0;95;97;97;1;13;13;2;15;15;2;13;13;38;55;55;
0;0;0;0;95;97;97;1;13;13;2;15;15;2;13;13;38;55;55;
0;0;0;0;95;97;97;1;13;13;2;15;15;2;13;13;38;55;55;
0;0;0;0;95;97;97;1;13;13;2;15;15;2;13;13;38;55;55;
0;0;0;0;95;97;97;1;13;13;2;15;15;2;13;13;38;55;55;
0;0;0;0;95;97;97;1;13;13;2;15;15;2;13;13;38;55;55;
0;0;0;0;95;97;97;1;13;13;2;15;15;2;13;13;38;55;55;
0;0;0;0;95;97;97;1;13;13;2;15;15;2;13;13;38;55;55;
0;0;0;0;95;97;97;1;13;13;2;15;15;2;13;13;38;55;55;
0;0;0;0;95;97;97;1;13;13;2;15;15;2;13;13;38;55;55;
0;0;0;0;95;97;97;1;13;13;2;15;15;2;13;13;38;55;55;
0;0;0;0;95;97;97;1;13;13;2;15;15;2;13;13;38;55;55;
0;0;0;0;95;97;97;1;13;13;2;15;15;2;13;13;38;55;55;
0;0;0;0;95;97;97;1;13;13;2;15;15;2;13;13;38;55;55;
0;0;0;0;95;97;97;1;13;13;2;15;15;2;13;13;38;55;55;
0;0;0;0;95;97;97;1;13;13;2;15;15;2;13;13;38;55;55;
0;0;0;0;95;97;97;1;13;13;2;15;15;2;13;13;38;55;55;
0;0;0;0;95;97;97;1;13;13;2;13;13;3;13;13;37;53;53;
0;0;0;0;95;97;97;1;13;13;2;13;13;3;13;13;37;53;53;
0;0;0;0;95;97;97;1;13;13;2;13;13;3;13;13;37;53;53;
0;0;0;0;95;97;97;1;13;13;2;13;13;3;13;13;37;53;53;
0;0;0;0;95;97;97;1;13;13;2;13;13;3;13;13;37;53;53;
0;0;0;0;95;97;97;1;13;13;2;13;13;3;13;13;37;53;53;
0;0;0;0;95;97;97;1;13;13;2;13;13;3;13;13;37;53;53;
0;0;0;0;95;97;97;1;13;13;2;13;13;3;13;13;37;53;53;
0;0;0;0;95;97;97;2;15;15;2;14;14;3;14;14;38;55;55;
0;0;0;0;95;97;97;2;15;15;2;14;14;3;14;14;38;55;55;
0;0;0;0;95;97;97;2;15;15;2;14;14;3;14;14;38;55;55;
0;0;0;0;95;98;98;3;18;18;3;16;16;4;16;16;38;55;55;
0;0;0;0;95;98;98;3;18;18;3;16;16;4;16;16;38;55;55;
0;0;0;0;95;98;98;3;18;18;3;16;16;4;16;16;38;55;55;
0;0;0;0;95;98;98;3;18;18;3;16;16;4;16;16;38;55;55;
0;0;0;0;95;98;98;3;18;18;3;16;16;4;16;16;38;55;55;
0;0;0;0;96;98;98;3;18;18;3;17;17;4;17;17;37;54;54;
0;0;0;0;96;98;98;3;18;18;3;17;17;4;17;17;37;54;54;
0;0;0;0;96;98;98;3;18;18;3;17;17;4;17;17;37;54;54;
0;0;0;0;96;98;98;3;18;18;3;17;17;4;17;17;37;54;54;
0;0;0;0;96;98;98;3;18;18;3;17;17;4;17;17;37;54;54;
0;0;0;0;96;98;98;3;18;18;3;17;17;4;17;17;37;54;54;
0;0;0;0;96;98;98;3;18;18;3;17;17;4;17;17;37;54;54;
0;0;0;0;96;98;98;3;18;18;3;17;17;4;17;17;37;54;54;
0;0;0;0;96;98;98;3;18;18;3;17;17;4;17;17;37;54;54;
0;0;0;0;96;98;98;3;18;18;3;17;17;4;17;17;37;54;54;
0;0;0;0;96;98;98;3;18;18;3;17;17;4;17;17;37;54;54;
0;0;0;0;96;98;98;3;18;18;3;17;17;4;17;17;37;54;54;
0;0;0;0;96;98;98;3;18;18;3;17;17;4;17;17;37;54;54;
0;0;0;0;96;98;98;3;18;18;3;17;17;4;17;17;37;54;54;
0;0;0;0;96;98;98;3;18;18;3;17;17;4;17;17;37;54;54;
0;0;0;0;96;98;98;3;18;18;3;17;17;4;17;17;37;54;54;
0;0;0;0;96;98;98;3;18;18;3;17;17;4;17;17;37;54;54;
0;0;0;0;96;98;98;3;18;18;3;17;17;4;17;17;37;54;54;
0;0;0;0;96;98;98;3;18;18;3;17;17;4;17;17;37;54;54;
0;0;0;0;96;98;98;3;18;18;3;17;17;4;17;17;37;54;54;
0;0;0;0;96;98;98;3;18;18;3;17;17;4;17;17;37;54;54;
0;0;0;0;96;98;98;3;18;18;3;17;17;4;17;17;37;54;54;
0;0;0;0;96;98;98;3;18;18;3;17;17;4;17;17;37;54;54;
0;0;0;0;96;98;98;3;18;18;3;17;17;4;17;17;37;54;54;
0;0;0;0;96;98;98;3;18;18;3;17;17;4;17;17;37;54;54;
0;0;0;0;96;98;98;3;18;18;3;17;17;4;17;17;37;54;54;
0;0;0;0;96;98;98;3;18;18;3;17;17;4;17;17;37;54;54;
0;0;0;0;96;98;98;3;18;18;3;17;17;4;17;17;37;54;54;
0;0;0;0;96;98;98;3;18;18;3;17;17;4;17;17;37;54;54;
0;0;0;0;96;98;98;3;18;18;3;17;17;4;17;17;37;54;54;
0;0;0;0;96;98;98;3;18;18;3;17;17;4;17;17;37;54;54;
0;0;0;0;96;98;98;3;18;18;3;17;17;4;17;17;37;54;54;
0;0;0;0;96;98;98;3;18;18;3;17;17;4;17;17;37;54;54;
0;0;0;0;96;98;98;3;18;18;3;17;17;4;17;17;37;54;54;
0;0;0;0;96;98;98;3;18;18;3;17;17;4;17;17;37;54;54;
0;0;0;0;96;98;98;3;18;18;3;17;17;4;17;17;37;54;54;
0;0;0;0;96;98;98;3;18;18;3;17;17;4;17;17;37;54;54;
0;0;0;0;96;98;98;3;18;18;3;17;17;4;17;17;37;54;54;
0;0;0;0;96;98;98;3;18;18;3;17;17;4;17;17;37;54;54;
0;0;0;0;96;98;98;3;18;18;3;17;17;4;17;17;37;54;54;
0;0;0;0;96;98;98;3;18;18;3;17;17;4;17;17;37;54;54;
0;0;0;0;96;98;98;3;18;18;3;17;17;4;17;17;37;54;54;
0;0;0;0;96;98;98;3;18;18;3;17;17;4;17;17;37;54;54;
0;0;0;0;96;98;98;3;18;18;3;17;17;4;17;17;37;54;54;
0;0;0;0;96;98;98;3;18;18;3;17;17;4;17;17;37;54;54;
0;0;0;0;96;98;98;3;18;18;3;17;17;4;17;17;37;54;54;
0;0;0;0;96;98;98;3;18;18;3;17;17;4;17;17;37;54;54;
0;0;0;0;96;98;98;3;18;18;3;17;17;4;17;17;37;54;54;
0;0;0;0;96;98;98;3;18;18;3;17;17;4;17;17;37;54;54;
0;0;0;0;96;98;98;3;18;18;3;17;17;4;17;17;37;54;54;
0;0;0;0;96;98;98;3;18;18;3;17;17;4;17;17;37;54;54;
0;0;0;0;96;98;98;3;18;18;3;17;17;4;17;17;37;54;54;
0;0;0;0;96;98;98;3;18;18;3;17;17;4;17;17;37;54;54;
0;0;0;0;96;98;98;3;18;18;3;17;17;4;17;17;37;54;54;
0;0;0;0;96;98;98;3;18;18;3;17;17;4;17;17;37;54;54;
0;0;0;0;96;98;98;3;18;18;3;17;17;4;17;17;37;54;54;
0;0;0;0;96;98;98;3;18;18;3;17;17;4;17;17;37;54;54;
0;0;0;0;96;98;98;3;18;18;3;17;17;4;17;17;37;54;54;
0;0;0;0;96;98;98;3;18;18;3;17;17;4;17;17;37;54;54;
0;0;0;0;96;98;98;3;18;18;3;17;17;4;17;17;37;54;54;
0;0;0;0;96;98;98;3;18;18;3;17;17;4;17;17;37;54;54;
0;0;0;0;96;98;98;3;18;18;3;17;17;4;17;17;37;54;54;
0;0;0;0;96;98;98;3;18;18;3;17;17;4;17;17;37;54;54;
0;0;0;0;96;98;98;3;18;18;3;17;17;4;17;17;37;54;54;
0;0;0;0;96;98;98;3;18;18;3;17;17;4;17;17;37;54;54;
0;0;0;0;96;98;98;3;18;18;3;17;17;4;17;17;37;54;54;
0;0;0;0;96;98;98;3;18;18;3;17;17;4;17;17;37;54;54;
0;0;0;0;96;98;98;3;18;18;3;17;17;4;17;17;37;54;54;
0;0;0;0;96;98;98;3;18;18;3;17;17;4;17;17;37;54;54;
0;0;0;0;96;98;98;3;18;18;3;17;17;4;17;17;37;54;54;
0;0;0;0;96;98;98;3;18;18;3;17;17;4;17;17;37;54;54;
0;0;0;0;96;98;98;3;18;18;3;17;17;4;17;17;37;54;54;
0;0;0;0;96;98;98;3;18;18;3;17;17;4;17;17;37;54;54;
0;0;0;0;96;98;98;3;18;18;3;17;17;4;17;17;37;54;54;
0;0;0;0;96;98;98;3;18;18;3;17;17;4;17;17;37;54;54;
0;0;0;0;96;98;98;3;18;18;3;17;17;4;17;17;37;54;54;
0;0;0;0;96;98;98;3;18;18;3;17;17;4;17;17;37;54;54;
0;0;0;0;96;98;98;3;18;18;3;17;17;4;17;17;37;54;54;
0;0;0;0;96;98;98;3;18;18;3;17;17;4;17;17;37;54;54;
0;0;0;0;96;98;98;3;18;18;3;17;17;4;17;17;37;54;54;
0;0;0;0;96;98;98;3;18;18;3;17;17;4;17;17;37;54;54;
0;0;0;0;96;98;98;3;18;18;3;17;17;4;17;17;37;54;54;
0;0;0;0;96;98;98;3;18;18;3;17;17;4;17;17;37;54;54;
0;0;0;0;96;98;98;3;18;18;3;17;17;4;17;17;37;54;54;
0;0;0;0;96;98;98;3;18;18;3;17;17;4;17;17;37;54;54;
0;0;0;0;96;98;98;3;18;18;3;17;17;4;17;17;37;54;54;
0;0;0;0;96;98;98;3;18;18;3;17;17;4;17;17;37;54;54;
0;0;0;0;96;98;98;3;18;18;3;17;17;4;17;17;37;54;54;
0;0;0;0;96;98;98;3;18;18;3;17;17;4;17;17;37;54;54;
0;0;0;0;96;98;98;3;18;18;3;17;17;4;17;17;37;54;54;
0;0;0;0;96;98;98;3;18;18;3;17;17;4;17;17;37;54;54;
0;0;0;0;96;98;98;3;18;18;3;17;17;4;17;17;37;54;54;
0;0;0;0;96;98;98;3;18;18;3;17;17;4;17;17;37;54;54;
0;0;0;0;96;98;98;3;18;18;3;17;17;4;17;17;37;54;54;
0;0;0;0;96;98;98;3;18;18;3;17;17;4;17;17;37;54;54;
0;0;0;0;96;98;98;3;18;18;3;17;17;4;17;17;37;54;54;
0;0;0;0;96;98;98;3;18;18;3;17;17;4;17;17;37;54;54;
0;0;0;0;96;98;98;3;18;18;3;17;17;4;17;17;37;54;54;
0;0;0;0;96;98;98;3;18;18;3;17;17;4;17;17;37;54;54;
0;0;0;0;96;98;98;3;18;18;3;17;17;4;17;17;37;54;54;
0;0;0;0;96;98;98;3;18;18;3;17;17;4;17;17;37;54;54;
0;0;0;0;96;98;98;3;18;18;3;17;17;4;17;17;37;54;54;
0;0;0;0;96;98;98;3;18;18;3;17;17;4;17;17;37;54;54;
0;0;0;0;96;98;98;3;18;18;3;17;17;4;17;17;37;54;54;
0;0;0;0;96;98;98;3;18;18;3;17;17;4;17;17;37;54;54;
0;0;0;0;96;98;98;3;18;18;3;17;17;4;17;17;37;54;54;
0;0;0;0;96;98;98;3;18;18;3;17;17;4;17;17;37;54;54;
0;0;0;0;96;98;98;3;18;18;3;17;17;4;17;17;37;54;54;
0;0;0;0;96;98;98;3;18;18;3;17;17;4;17;17;37;54;54;
0;0;0;0;96;98;98;3;18;18;3;17;17;4;17;17;37;54;54;
0;0;0;0;96;98;98;3;18;18;3;17;17;4;17;17;37;54;54;
0;0;0;0;96;98;98;3;18;18;3;17;17;4;17;17;37;54;54;
0;0;0;0;96;98;98;3;18;18;3;17;17;4;17;17;37;54;54;
0;0;0;0;96;98;98;3;18;18;3;17;17;4;17;17;37;54;54;
0;0;0;0;96;98;98;3;18;18;3;17;17;4;17;17;37;54;54;
0;0;0;0;96;98;98;3;18;18;3;17;17;4;17;17;37;54;54;
0;0;0;0;96;98;98;3;18;18;3;17;17;4;17;17;37;54;54;
0;0;0;0;96;98;98;3;18;18;3;17;17;4;17;17;37;54;54;
0;0;0;0;96;98;98;3;18;18;3;17;17;4;17;17;37;54;54;
0;0;0;0;96;98;98;3;18;18;3;17;17;4;17;17;37;54;54;
0;0;0;0;96;98;98;3;18;18;3;17;17;4;17;17;37;54;54;
0;0;0;0;96;98;98;3;18;18;3;17;17;4;17;17;37;54;54;
0;0;0;0;96;98;98;3;18;18;3;17;17;4;17;17;37;54;54;
0;0;0;0;96;98;98;3;18;18;3;17;17;4;17;17;37;54;54;
0;0;0;0;96;98;98;3;18;18;3;17;17;4;17;17;37;54;54;
0;0;0;0;96;98;98;3;18;18;3;17;17;4;17;17;37;54;54;
0;0;0;0;96;98;98;3;18;18;3;17;17;4;17;17;37;54;54;
0;0;0;0;96;98;98;3;18;18;3;17;17;4;17;17;37;54;54;
0;0;0;0;96;98;98;3;18;18;3;17;17;4;17;17;37;54;54;
0;0;0;0;96;98;98;3;18;18;3;17;17;4;17;17;37;54;54;
0;0;0;0;96;98;98;3;18;18;3;17;17;4;17;17;37;54;54;
0;0;0;0;96;98;98;3;18;18;3;17;17;4;17;17;37;54;54;
0;0;0;0;96;98;98;3;18;18;3;17;17;4;17;17;37;54;54;
0;0;0;0;96;98;98;3;18;18;3;17;17;4;17;17;37;54;54;
0;0;0;0;96;98;98;3;18;18;3;17;17;4;17;17;37;54;54;
0;0;0;0;96;98;98;3;18;18;3;17;17;4;17;17;37;54;54;
0;0;0;0;97;99;99;5;22;22;6;25;25;6;21;21;17;36;36;
0;0;0;0;97;99;99;5;22;22;6;25;25;6;21;21;17;36;36;
0;0;0;0;97;99;99;5;22;22;6;25;25;6;21;21;17;36;36;
0;0;0;0;97;99;99;5;22;22;6;25;25;6;21;21;17;36;36;
0;0;0;0;97;99;99;5;22;22;6;25;25;6;21;21;17;36;36;
0;0;0;0;97;99;99;5;22;22;6;25;25;6;21;21;17;36;36;
0;0;0;0;97;99;99;5;22;22;6;25;25;6;21;21;17;36;36;
0;0;0;0;97;99;99;5;22;22;6;25;25;6;21;21;17;36;36;
0;0;0;0;97;99;99;5;22;22;6;25;25;6;21;21;17;36;36;
0;0;0;0;97;99;99;5;22;22;6;25;25;6;21;21;17;36;36;
0;0;0;0;97;99;99;5;22;22;6;25;25;6;21;21;17;36;36;
0;0;0;0;97;99;99;5;22;22;6;25;25;6;21;21;17;36;36;
0;0;0;0;97;99;99;5;22;22;6;25;25;6;21;21;17;36;36;
0;0;0;0;97;99;99;5;22;22;6;25;25;6;21;21;17;36;36;
0;0;0;0;97;99;99;5;22;22;6;25;25;6;21;21;17;36;36;
0;0;0;0;97;99;99;5;22;22;6;25;25;6;21;21;17;36;36;
0;0;0;0;97;99;99;5;22;22;6;25;25;6;21;21;17;36;36;
0;0;0;0;97;99;99;5;22;22;6;25;25;6;21;21;17;36;36;
0;0;0;0;97;99;99;5;22;22;6;25;25;6;21;21;17;36;36;
0;0;0;0;97;99;99;5;22;22;6;25;25;6;21;21;17;36;36;
0;0;0;0;97;99;99;5;22;22;6;25;25;6;21;21;17;36;36;
0;0;0;0;97;99;99;5;22;22;6;25;25;6;21;21;17;36;36;
0;0;0;0;97;99;99;5;22;22;6;25;25;6;21;21;17;36;36;
0;0;0;0;97;99;99;5;22;22;6;25;25;6;21;21;17;36;36;
0;0;0;0;97;99;99;5;22;22;6;25;25;6;21;21;17;36;36;
0;0;0;0;97;99;99;5;22;22;6;25;25;6;21;21;17;36;36;
0;0;0;0;97;99;99;5;22;22;6;25;25;6;21;21;17;36;36;
0;0;0;0;97;99;99;5;22;22;6;25;25;6;21;21;17;36;36;
0;0;0;0;97;99;99;5;22;22;6;25;25;6;21;21;17;36;36;
0;0;0;0;97;99;99;5;22;22;6;25;25;6;21;21;17;36;36;
0;0;0;0;97;99;99;5;22;22;6;25;25;6;21;21;17;36;36;
0;0;0;0;97;99;99;5;22;22;6;25;25;6;21;21;17;36;36;
0;0;0;0;97;99;99;5;22;22;6;25;25;6;21;21;17;36;36;
0;0;0;0;97;99;99;5;22;22;6;25;25;6;21;21;17;36;36;
0;0;0;0;97;99;99;5;22;22;6;25;25;6;21;21;17;36;36;
0;0;0;0;97;99;99;5;22;22;6;25;25;6;21;21;17;36;36;
0;0;0;0;97;99;99;5;22;22;6;25;25;6;21;21;17;36;36;
0;0;0;0;97;99;99;5;22;22;6;25;25;6;21;21;17;36;36;
0;0;0;0;97;99;99;5;22;22;6;25;25;6;21;21;17;36;36;
0;0;0;0;97;99;99;5;22;22;6;25;25;6;21;21;17;36;36;
0;0;0;0;97;99;99;5;22;22;6;25;25;6;21;21;17;36;36;
0;0;0;0;97;99;99;5;22;22;6;25;25;6;21;21;17;36;36;
0;0;0;0;97;99;99;5;22;22;6;25;25;6;21;21;17;36;36;
0;0;0;0;97;99;99;5;22;22;6;25;25;6;21;21;17;36;36;
0;0;0;0;97;99;99;5;22;22;6;25;25;6;21;21;17;36;36;
0;0;0;0;97;99;99;5;22;22;6;25;25;6;21;21;17;36;36;
0;0;0;0;97;99;99;7;27;27;11;34;34;9;26;26;18;38;38;
0;0;0;0;97;99;99;7;27;27;11;34;34;9;26;26;18;38;38;
0;0;0;0;97;99;99;8;28;28;12;36;36;9;27;27;18;37;37;
0;0;0;0;97;99;99;8;28;28;12;36;36;9;27;27;18;37;37;
0;0;0;0;97;99;99;8;28;28;12;36;36;9;27;27;18;37;37;
0;0;0;0;97;99;99;8;28;28;12;36;36;9;27;27;18;37;37;
0;0;0;0;97;99;99;8;28;28;12;36;36;9;27;27;18;37;37;
0;0;0;0;97;99;99;8;28;28;12;36;36;9;27;27;18;37;37;
0;0;0;0;97;99;99;8;28;28;12;36;36;9;27;27;18;37;37;
0;0;0;0;97;99;99;8;28;28;12;36;36;9;27;27;18;37;37;
0;0;0;0;97;99;99;8;28;28;12;36;36;9;27;27;18;37;37;
0;0;0;0;97;99;99;8;28;28;12;36;36;9;27;27;18;37;37;
0;0;0;0;97;99;99;8;28;28;12;36;36;9;27;27;18;37;37;
0;0;0;0;97;99;99;8;28;28;12;36;36;9;27;27;18;37;37;
0;0;0;0;97;99;99;8;28;28;12;36;36;9;27;27;18;37;37;
0;0;0;0;97;99;99;8;28;28;12;36;36;9;27;27;18;37;37;
0;0;0;0;97;99;99;8;28;28;12;36;36;9;27;27;18;37;37;
0;0;0;0;97;99;99;8;28;28;12;36;36;9;27;27;18;37;37;
0;0;0;0;97;99;99;8;28;28;12;36;36;9;27;27;18;37;37;
0;0;0;0;97;99;99;8;28;28;12;36;36;9;27;27;18;37;37;
0;0;0;0;97;99;99;8;28;28;12;36;36;9;27;27;18;37;37;
0;0;0;0;97;99;99;8;28;28;12;36;36;9;27;27;18;37;37;
0;0;0;0;97;99;99;8;28;28;12;36;36;9;27;27;18;37;37;
0;0;0;0;97;99;99;8;28;28;12;36;36;9;27;27;18;37;37;
0;0;0;0;97;99;99;8;28;28;12;36;36;9;27;27;18;37;37;
0;0;0;0;97;99;99;8;28;28;12;36;36;9;27;27;18;37;37;
0;0;0;0;97;99;99;8;28;28;12;36;36;9;27;27;18;37;37;
0;0;0;0;97;99;99;8;28;28;12;36;36;9;27;27;18;37;37;
0;0;0;0;97;99;99;8;28;28;12;36;36;9;27;27;18;37;37;
0;0;0;0;97;99;99;8;28;28;12;36;36;9;27;27;18;37;37;
0;0;0;0;97;99;99;8;28;28;12;36;36;9;27;27;18;37;37;
0;0;0;0;97;99;99;8;28;28;12;36;36;9;27;27;18;37;37;
0;0;0;0;97;99;99;8;28;28;12;36;36;9;27;27;18;37;37;
0;0;0;0;97;99;99;8;28;28;12;36;36;9;27;27;18;37;37;
0;0;0;0;97;99;99;8;28;28;12;36;36;9;27;27;18;37;37;
0;0;0;0;97;99;99;8;28;28;12;36;36;9;27;27;18;37;37;
0;0;0;0;97;99;99;8;28;28;12;36;36;9;27;27;18;37;37;
0;0;0;0;97;99;99;8;28;28;12;36;36;9;27;27;18;37;37;
0;0;0;0;97;99;99;8;28;28;12;36;36;9;27;27;18;37;37;
0;0;0;0;97;99;99;8;28;28;12;36;36;9;27;27;18;37;37;
0;0;0;0;97;99;99;8;28;28;12;36;36;9;27;27;18;37;37;
0;0;0;0;97;99;99;8;28;28;12;36;36;9;27;27;18;37;37;
0;0;0;0;97;99;99;8;28;28;12;36;36;9;27;27;18;37;37;
0;0;0;0;97;99;99;8;28;28;12;36;36;9;27;27;18;37;37;
0;0;0;0;97;99;99;8;28;28;12;36;36;9;27;27;18;37;37;
0;0;0;0;97;99;99;8;28;28;12;36;36;9;27;27;18;37;37;
0;0;0;0;97;99;99;8;28;28;12;36;36;9;27;27;18;37;37;
0;0;0;0;97;99;99;8;28;28;12;36;36;9;27;27;18;37;37;
0;0;0;0;97;99;99;8;28;28;12;36;36;9;27;27;18;37;37;
0;0;0;0;97;99;99;8;28;28;12;36;36;9;27;27;18;37;37;
0;0;0;0;97;99;99;8;28;28;12;36;36;9;27;27;18;37;37;
0;0;0;0;97;99;99;8;28;28;12;36;36;9;27;27;18;37;37;
0;0;0;0;97;99;99;8;28;28;12;36;36;9;27;27;18;37;37;
0;0;0;0;97;99;99;8;28;28;12;36;36;9;27;27;18;37;37;
0;0;0;0;97;99;99;8;28;28;12;36;36;9;27;27;18;37;37;
0;0;0;0;97;99;99;8;28;28;12;36;36;9;27;27;18;37;37;
0;0;0;0;97;99;99;8;28;28;12;36;36;9;27;27;18;37;37;
0;0;0;0;97;99;99;8;28;28;12;36;36;9;27;27;18;37;37;
0;0;0;0;97;99;99;8;28;28;12;36;36;9;27;27;18;37;37;
0;0;0;0;97;99;99;8;28;28;12;36;36;9;27;27;18;37;37;
0;0;0;0;97;99;99;8;28;28;12;36;36;9;27;27;18;37;37;
0;0;0;0;97;99;99;8;28;28;12;36;36;9;27;27;18;37;37;
0;0;0;0;97;99;99;8;28;28;12;36;36;9;27;27;18;37;37;
0;0;0;0;97;99;99;8;28;28;12;36;36;9;27;27;18;37;37;
0;0;0;0;97;99;99;8;28;28;12;36;36;9;27;27;18;37;37;
0;0;0;0;97;99;99;8;28;28;12;36;36;9;27;27;18;37;37;
0;0;0;0;97;99;99;8;28;28;12;36;36;9;27;27;18;37;37;
0;0;0;0;97;99;99;8;28;28;12;36;36;9;27;27;18;37;37;
0;0;0;0;97;99;99;8;28;28;12;36;36;9;27;27;18;37;37;
0;0;0;0;97;99;99;8;28;28;12;36;36;9;27;27;18;37;37;
0;0;0;0;97;99;99;8;28;28;12;36;36;9;27;27;18;37;37;
0;0;0;0;97;99;99;8;28;28;12;36;36;9;27;27;18;37;37;
0;0;0;0;97;99;99;8;28;28;12;36;36;9;27;27;18;37;37;
0;0;0;0;90;95;95;11;29;29;17;41;41;15;31;31;25;42;42;
0;0;0;0;90;95;95;11;29;29;17;41;41;15;31;31;25;42;42;
0;0;0;0;90;95;95;11;29;29;17;41;41;15;31;31;25;42;42;
0;0;0;0;90;95;95;11;29;29;17;41;41;15;31;31;25;42;42;
0;0;0;0;90;95;95;11;29;29;17;41;41;15;31;31;25;42;42;
0;0;0;0;90;95;95;11;29;29;17;41;41;15;31;31;25;42;42;
0;0;0;0;90;95;95;11;29;29;17;41;41;15;31;31;25;42;42;
0;0;0;0;90;95;95;11;29;29;17;41;41;15;31;31;25;42;42;
0;0;0;0;90;95;95;11;29;29;17;41;41;15;31;31;25;42;42;
0;0;0;0;90;95;95;11;29;29;17;41;41;15;31;31;25;42;42;
0;0;0;0;90;95;95;11;29;29;17;41;41;15;31;31;25;42;42;
0;0;0;0;85;91;91;14;31;31;21;43;43;20;34;34;30;46;46;
0;0;0;0;85;91;91;14;31;31;21;43;43;20;34;34;30;46;46;
0;0;0;0;85;91;91;14;31;31;21;43;43;20;34;34;30;46;46;
0;0;0;0;85;91;91;14;31;31;21;43;43;20;34;34;30;46;46;
0;0;0;0;85;91;91;14;31;31;21;43;43;20;34;34;30;46;46;
0;0;0;0;85;91;91;14;31;31;21;43;43;20;34;34;30;46;46;
0;0;0;0;85;91;91;14;31;31;21;43;43;20;34;34;30;46;46;
0;0;0;0;85;91;91;14;31;31;21;43;43;20;34;34;30;46;46;
0;0;0;0;85;91;91;14;31;31;21;43;43;20;34;34;30;46;46;
0;0;0;0;85;91;91;14;31;31;21;43;43;20;34;34;30;46;46;
0;0;0;0;85;91;91;14;31;31;21;43;43;20;34;34;30;46;46;
0;0;0;0;85;91;91;14;31;31;21;43;43;20;34;34;30;46;46;
0;0;0;0;85;91;91;14;31;31;21;43;43;20;34;34;30;46;46;
0;0;0;0;85;91;91;14;31;31;21;43;43;20;34;34;30;46;46;
0;0;0;0;85;91;91;14;31;31;21;43;43;20;34;34;30;46;46;
0;0;0;0;85;91;91;14;31;31;21;43;43;20;34;34;30;46;46;
0;0;0;0;85;91;91;14;31;31;21;43;43;20;34;34;30;46;46;
0;0;0;0;85;91;91;14;31;31;21;43;43;20;34;34;30;46;46;
0;0;0;0;85;91;91;14;31;31;21;43;43;20;34;34;30;46;46;
0;0;0;0;85;91;91;14;31;31;21;43;43;20;34;34;30;46;46;
0;0;0;0;85;91;91;14;31;31;21;43;43;20;34;34;30;46;46;
0;0;0;0;85;91;91;14;31;31;21;43;43;20;34;34;30;46;46;
0;0;0;0;85;91;91;14;31;31;21;43;43;20;34;34;30;46;46;
0;0;0;0;85;91;91;14;31;31;21;43;43;20;34;34;30;46;46;
0;0;0;0;85;91;91;14;31;31;21;43;43;20;34;34;30;46;46;
0;0;0;0;85;91;91;14;31;31;21;43;43;20;34;34;30;46;46;
0;0;0;0;85;91;91;14;31;31;21;43;43;20;34;34;30;46;46;
0;0;0;0;85;91;91;14;31;31;21;43;43;20;34;34;30;46;46;
0;0;0;0;85;91;91;14;31;31;21;43;43;20;34;34;30;46;46;
0;0;0;0;85;91;91;14;31;31;21;43;43;20;34;34;30;46;46;
0;0;0;0;85;91;91;14;31;31;21;43;43;20;34;34;30;46;46;
0;0;0;0;85;91;91;14;31;31;21;43;43;20;34;34;30;46;46;
0;0;0;0;85;91;91;14;31;31;21;43;43;20;34;34;30;46;46;
0;0;0;0;72;82;82;22;34;34;30;46;46;31;41;41;43;55;55;
0;0;0;0;72;82;82;22;34;34;30;46;46;31;41;41;43;55;55;
0;0;0;0;72;82;82;22;34;34;30;46;46;31;41;41;43;55;55;
0;0;0;0;72;82;82;22;34;34;30;46;46;31;41;41;43;55;55;
0;0;0;0;72;82;82;22;34;34;30;46;46;31;41;41;43;55;55;
0;0;0;0;72;82;82;22;34;34;30;46;46;31;41;41;43;55;55;
0;0;0;0;71;82;82;22;32;32;31;44;44;33;41;41;45;55;55;
0;0;0;0;71;82;82;22;32;32;31;44;44;33;41;41;45;55;55;
0;0;0;0;71;82;82;22;32;32;31;44;44;33;41;41;45;55;55;
0;0;0;0;71;82;82;22;32;32;31;44;44;33;41;41;45;55;55;
0;0;0;0;71;82;82;22;32;32;31;44;44;33;41;41;45;55;55;
0;0;0;0;71;82;82;22;32;32;31;44;44;33;41;41;45;55;55;
0;0;0;0;71;82;82;22;32;32;31;44;44;33;41;41;45;55;55;
0;0;0;0;71;82;82;22;32;32;31;44;44;33;41;41;45;55;55;
0;0;0;0;71;82;82;22;32;32;31;44;44;33;41;41;45;55;55;
0;0;0;0;71;82;82;22;32;32;31;44;44;33;41;41;45;55;55;
0;0;0;0;71;82;82;22;32;32;31;44;44;33;41;41;45;55;55;
0;0;0;0;71;82;82;22;32;32;31;44;44;33;41;41;45;55;55;
0;0;0;0;72;83;83;21;31;31;29;42;42;32;39;39;44;53;53;
0;0;0;0;72;83;83;21;31;31;29;42;42;32;39;39;44;53;53;
0;0;0;0;72;83;83;21;31;31;29;42;42;32;39;39;44;53;53;
0;0;0;0;72;83;83;21;31;31;29;42;42;32;39;39;44;53;53;
0;0;0;0;72;83;83;21;31;31;29;42;42;32;39;39;44;53;53;
0;0;0;0;72;83;83;21;31;31;29;42;42;32;39;39;44;53;53;
0;0;0;0;72;83;83;21;31;31;29;42;42;32;39;39;44;53;53;
0;0;0;0;72;83;83;21;31;31;29;42;42;32;39;39;44;53;53;
0;0;0;0;72;83;83;21;31;31;29;42;42;32;39;39;44;53;53;
0;0;0;0;72;83;83;21;31;31;29;42;42;32;39;39;44;53;53;
0;0;0;0;72;83;83;21;31;31;29;42;42;32;39;39;44;53;53;
0;0;0;0;72;83;83;21;31;31;29;42;42;32;39;39;44;53;53;
0;0;0;0;72;83;83;21;31;31;29;42;42;32;39;39;44;53;53;
0;0;0;0;72;83;83;21;31;31;29;42;42;32;39;39;44;53;53;
0;0;0;0;72;83;83;21;31;31;29;42;42;32;39;39;44;53;53;
0;0;0;0;74;85;85;19;28;28;27;39;39;31;37;37;43;51;51;
0;0;0;0;74;85;85;19;28;28;27;39;39;31;37;37;43;51;51;
0;0;0;0;74;85;85;19;28;28;27;39;39;31;37;37;43;51;51;
0;0;0;0;74;85;85;19;28;28;27;39;39;31;37;37;43;51;51;
0;0;0;0;74;85;85;19;28;28;27;39;39;31;37;37;43;51;51;
0;0;0;0;74;85;85;19;28;28;27;39;39;31;37;37;43;51;51;
0;0;0;0;74;85;85;19;28;28;27;39;39;31;37;37;43;51;51;
0;0;0;0;74;85;85;19;28;28;27;39;39;31;37;37;43;51;51;
0;0;0;0;74;85;85;19;28;28;27;39;39;31;37;37;43;51;51;
0;0;0;0;74;85;85;19;28;28;27;39;39;31;37;37;43;51;51;
0;0;0;0;74;85;85;19;28;28;27;39;39;31;37;37;43;51;51;
0;0;0;0;74;85;85;19;28;28;27;39;39;31;37;37;43;51;51;
0;0;0;0;74;85;85;19;28;28;27;39;39;31;37;37;43;51;51;
0;0;0;0;74;85;85;19;28;28;27;39;39;31;37;37;43;51;51;
0;0;0;0;74;85;85;19;28;28;27;39;39;31;37;37;43;51;51;
0;0;0;0;74;85;85;19;28;28;27;39;39;31;37;37;43;51;51;
0;0;0;0;74;85;85;19;28;28;27;39;39;31;37;37;43;51;51;
0;0;0;0;74;85;85;19;28;28;27;39;39;31;37;37;43;51;51;
0;0;0;0;74;85;85;19;28;28;27;39;39;31;37;37;43;51;51;
0;0;0;0;74;85;85;19;28;28;27;39;39;31;37;37;43;51;51;
0;0;0;0;74;85;85;19;28;28;27;39;39;31;37;37;43;51;51;
0;0;0;0;74;85;85;19;28;28;27;39;39;31;37;37;43;51;51;
0;0;0;0;74;85;85;19;28;28;27;39;39;31;37;37;43;51;51;
0;0;0;0;74;85;85;19;28;28;27;39;39;31;37;37;43;51;51;
0;0;0;0;74;85;85;19;28;28;27;39;39;31;37;37;43;51;51;
0;0;0;0;74;85;85;19;28;28;27;39;39;31;37;37;43;51;51;
0;0;0;0;74;85;85;19;28;28;27;39;39;31;37;37;43;51;51;
0;0;0;0;74;85;85;19;28;28;27;39;39;31;37;37;43;51;51;
0;0;0;0;74;85;85;19;28;28;27;39;39;31;37;37;43;51;51;
0;0;0;0;74;85;85;19;28;28;27;39;39;31;37;37;43;51;51;
0;0;0;0;74;85;85;19;28;28;27;39;39;31;37;37;43;51;51;
0;0;0;0;74;85;85;19;28;28;27;39;39;31;37;37;43;51;51;
0;0;0;0;74;85;85;19;28;28;27;39;39;31;37;37;43;51;51;
0;0;0;0;74;85;85;19;28;28;27;39;39;31;37;37;43;51;51;
0;0;0;0;74;85;85;19;28;28;27;39;39;31;37;37;43;51;51;
0;0;0;0;74;85;85;19;28;28;27;39;39;31;37;37;43;51;51;
0;0;0;0;74;85;85;19;28;28;27;39;39;31;37;37;43;51;51;
0;0;0;0;74;85;85;19;28;28;27;39;39;31;37;37;43;51;51;
0;0;0;0;74;85;85;19;28;28;27;39;39;31;37;37;43;51;51;
0;0;0;0;74;85;85;19;28;28;27;39;39;31;37;37;43;51;51;
0;0;0;0;74;85;85;19;28;28;27;39;39;31;37;37;43;51;51;
0;0;0;0;74;85;85;19;28;28;27;39;39;31;37;37;43;51;51;
0;0;0;0;74;85;85;19;28;28;27;39;39;31;37;37;43;51;51;
0;0;0;0;74;85;85;19;28;28;27;39;39;31;37;37;43;51;51;
0;0;0;0;74;85;85;19;28;28;27;39;39;31;37;37;43;51;51;
0;0;0;0;74;85;85;19;28;28;27;39;39;31;37;37;43;51;51;
0;0;0;0;74;85;85;19;28;28;27;39;39;31;37;37;43;51;51;
0;0;0;0;74;85;85;19;28;28;27;39;39;31;37;37;43;51;51;
0;0;0;0;74;85;85;19;28;28;27;39;39;31;37;37;43;51;51;
0;0;0;0;74;85;85;19;28;28;27;39;39;31;37;37;43;51;51;
0;0;0;0;74;85;85;19;28;28;27;39;39;31;37;37;43;51;51;
0;0;0;0;74;85;85;19;28;28;27;39;39;31;37;37;43;51;51;
0;0;0;0;74;85;85;19;28;28;27;39;39;31;37;37;43;51;51;
0;0;0;0;74;85;85;19;28;28;27;39;39;31;37;37;43;51;51;
0;0;0;0;74;85;85;19;28;28;27;39;39;31;37;37;43;51;51;
0;0;0;0;74;85;85;19;28;28;27;39;39;31;37;37;43;51;51;
0;0;0;0;74;85;85;19;28;28;27;39;39;31;37;37;43;51;51;
0;0;0;0;74;85;85;19;28;28;27;39;39;31;37;37;43;51;51;
0;0;0;0;74;85;85;19;28;28;27;39;39;31;37;37;43;51;51;
0;0;0;0;77;87;87;17;26;26;24;36;36;29;35;35;40;48;48;
0;0;0;0;77;87;87;17;26;26;24;36;36;29;35;35;40;48;48;
0;0;0;0;77;87;87;17;26;26;24;36;36;29;35;35;40;48;48;
0;0;0;0;77;87;87;17;26;26;24;36;36;29;35;35;40;48;48;
0;0;0;0;77;87;87;17;26;26;24;36;36;29;35;35;40;48;48;
0;0;0;0;78;88;88;15;25;25;23;34;34;27;34;34;39;47;47;
0;0;0;0;78;88;88;15;25;25;23;34;34;27;34;34;39;47;47;
0;0;0;0;79;88;88;16;26;26;23;36;36;28;35;35;40;48;48;
0;0;0;0;79;88;88;16;26;26;23;36;36;28;35;35;40;48;48;
0;0;0;0;79;88;88;16;26;26;23;36;36;28;35;35;40;48;48;
0;0;0;0;79;88;88;16;26;26;23;36;36;28;35;35;40;48;48;
0;0;0;0;79;88;88;16;26;26;23;36;36;28;35;35;40;48;48;
0;0;0;0;79;88;88;16;26;26;23;36;36;28;35;35;40;48;48;
0;0;0;0;79;88;88;16;26;26;23;36;36;28;35;35;40;48;48;
0;0;0;0;79;88;88;16;26;26;23;36;36;28;35;35;40;48;48;
0;0;0;0;79;88;88;16;26;26;23;36;36;28;35;35;40;48;48;
0;0;0;0;79;88;88;16;26;26;23;36;36;28;35;35;40;48;48;
0;0;0;0;79;88;88;16;26;26;23;36;36;28;35;35;40;48;48;
0;0;0;0;79;88;88;16;26;26;23;36;36;28;35;35;40;48;48;
0;0;0;0;79;88;88;16;26;26;23;36;36;28;35;35;40;48;48;
0;0;0;0;79;88;88;16;26;26;23;36;36;28;35;35;40;48;48;
0;0;0;0;79;88;88;16;26;26;23;36;36;28;35;35;40;48;48;
0;0;0;0;79;88;88;16;26;26;23;36;36;28;35;35;40;48;48;
0;0;0;0;79;88;88;16;26;26;23;36;36;28;35;35;40;48;48;
0;0;0;0;79;88;88;16;26;26;23;36;36;28;35;35;40;48;48;
0;0;0;0;79;88;88;16;26;26;23;36;36;28;35;35;40;48;48;
0;0;0;0;79;88;88;16;26;26;23;36;36;28;35;35;40;48;48;
0;0;0;0;79;88;88;16;26;26;23;36;36;28;35;35;40;48;48;
0;0;0;0;79;88;88;16;26;26;23;36;36;28;35;35;40;48;48;
0;0;0;0;79;88;88;16;26;26;23;36;36;28;35;35;40;48;48;
0;0;0;0;79;88;88;16;26;26;23;36;36;28;35;35;40;48;48;
0;0;0;0;79;88;88;16;26;26;23;36;36;28;35;35;40;48;48;
0;0;0;0;79;88;88;16;26;26;23;36;36;28;35;35;40;48;48;
0;0;0;0;79;88;88;16;26;26;23;36;36;28;35;35;40;48;48;
0;0;0;0;79;88;88;16;26;26;23;36;36;28;35;35;40;48;48;
0;0;0;0;79;88;88;16;26;26;23;36;36;28;35;35;40;48;48;
0;0;0;0;79;88;88;16;26;26;23;36;36;28;35;35;40;48;48;
0;0;0;0;79;88;88;16;26;26;23;36;36;28;35;35;40;48;48;
0;0;0;0;79;88;88;16;26;26;23;36;36;28;35;35;40;48;48;
0;0;0;0;79;88;88;16;26;26;23;36;36;28;35;35;40;48;48;
0;0;0;0;79;88;88;16;26;26;23;36;36;28;35;35;40;48;48;
0;0;0;0;79;88;88;16;26;26;23;36;36;28;35;35;40;48;48;
0;0;0;0;79;88;88;16;26;26;23;36;36;28;35;35;40;48;48;
0;0;0;0;79;88;88;16;26;26;23;36;36;28;35;35;40;48;48;
0;0;0;0;79;88;88;16;26;26;23;36;36;28;35;35;40;48;48;
0;0;0;0;79;88;88;16;26;26;23;36;36;28;35;35;40;48;48;
0;0;0;0;79;88;88;16;26;26;23;36;36;28;35;35;40;48;48;
0;0;0;0;79;88;88;16;26;26;23;36;36;28;35;35;40;48;48;
0;0;0;0;79;88;88;16;26;26;23;36;36;28;35;35;40;48;48;
0;0;0;0;79;88;88;16;26;26;23;36;36;28;35;35;40;48;48;
0;0;0;0;79;88;88;16;26;26;23;36;36;28;35;35;40;48;48;
0;0;0;0;79;88;88;16;26;26;23;36;36;28;35;35;40;48;48;
0;0;0;0;79;88;88;16;26;26;23;36;36;28;35;35;40;48;48;
0;0;0;0;79;88;88;16;26;26;23;36;36;28;35;35;40;48;48;
0;0;0;0;79;88;88;16;26;26;23;36;36;28;35;35;40;48;48;
0;0;0;0;79;88;88;16;26;26;23;36;36;28;35;35;40;48;48;
0;0;0;0;79;88;88;16;26;26;23;36;36;28;35;35;40;48;48;
0;0;0;0;79;88;88;16;26;26;23;36;36;28;35;35;40;48;48;
0;0;0;0;79;88;88;16;26;26;23;36;36;28;35;35;40;48;48;
0;0;0;0;79;88;88;16;26;26;23;36;36;28;35;35;40;48;48;
0;0;0;0;79;88;88;16;26;26;23;36;36;28;35;35;40;48;48;
0;0;0;0;79;88;88;16;26;26;23;36;36;28;35;35;40;48;48;
0;0;0;0;79;88;88;16;26;26;23;36;36;28;35;35;40;48;48;
0;0;0;0;79;88;88;16;26;26;23;36;36;28;35;35;40;48;48;
0;0;0;0;79;88;88;19;31;31;28;42;42;31;40;40;44;55;55;
0;0;0;0;79;88;88;19;31;31;28;42;42;31;40;40;44;55;55;
0;0;0;0;79;88;88;19;31;31;28;42;42;31;40;40;44;55;55;
0;0;0;0;79;88;88;19;31;31;28;42;42;31;40;40;44;55;55;
0;0;0;0;79;88;88;19;31;31;28;42;42;31;40;40;44;55;55;
0;0;0;0;79;88;88;19;31;31;28;42;42;31;40;40;44;55;55;
0;0;0;0;79;88;88;19;31;31;28;42;42;31;40;40;44;55;55;
0;0;0;0;79;88;88;19;31;31;28;42;42;31;40;40;44;55;55;
0;0;0;0;79;88;88;19;31;31;28;42;42;31;40;40;44;55;55;
0;0;0;0;79;88;88;19;31;31;28;42;42;31;40;40;44;55;55;
0;0;0;0;79;88;88;19;31;31;28;42;42;31;40;40;44;55;55;
0;0;0;0;79;88;88;19;31;31;28;42;42;31;40;40;44;55;55;
0;0;0;0;79;88;88;19;31;31;28;42;42;31;40;40;44;55;55;
0;0;0;0;79;88;88;19;31;31;28;42;42;31;40;40;44;55;55;
0;0;0;0;79;88;88;19;31;31;28;42;42;31;40;40;44;55;55;
0;0;0;0;79;88;88;19;31;31;28;42;42;31;40;40;44;55;55;
0;0;0;0;79;88;88;19;31;31;28;42;42;31;40;40;44;55;55;
0;0;0;0;79;88;88;19;31;31;28;42;42;31;40;40;44;55;55;
0;0;0;0;77;87;87;19;30;30;28;41;41;32;40;40;45;54;54;
0;0;0;0;77;87;87;19;30;30;28;41;41;32;40;40;45;54;54;
0;0;0;0;77;87;87;19;30;30;28;41;41;32;40;40;45;54;54;
0;0;0;0;77;87;87;19;30;30;28;41;41;32;40;40;45;54;54;
0;0;0;0;77;87;87;19;30;30;28;41;41;32;40;40;45;54;54;
0;0;0;0;77;87;87;19;30;30;28;41;41;32;40;40;45;54;54;
0;0;0;0;77;87;87;19;30;30;28;41;41;32;40;40;45;54;54;
0;0;0;0;74;85;85;20;30;30;29;41;41;33;40;40;46;55;55;
0;0;0;0;74;85;85;20;30;30;29;41;41;33;40;40;46;55;55;
0;0;0;0;74;85;85;20;30;30;29;41;41;33;40;40;46;55;55;
0;0;0;0;74;85;85;20;30;30;29;41;41;33;40;40;46;55;55;
0;0;0;0;74;85;85;20;30;30;29;41;41;33;40;40;46;55;55;
0;0;0;0;74;85;85;20;30;30;29;41;41;33;40;40;46;55;55;
0;0;0;0;74;85;85;20;30;30;29;41;41;33;40;40;46;55;55;
0;0;0;0;74;85;85;20;30;30;29;41;41;33;40;40;46;55;55;
0;0;0;0;74;85;85;20;30;30;29;41;41;33;40;40;46;55;55;
0;0;0;0;74;85;85;20;30;30;29;41;41;33;40;40;46;55;55;
0;0;0;0;74;85;85;20;30;30;29;41;41;33;40;40;46;55;55;
0;0;0;0;74;85;85;20;30;30;29;41;41;33;40;40;46;55;55;
0;0;0;0;74;85;85;20;30;30;29;41;41;33;40;40;46;55;55;
0;0;0;0;74;85;85;20;30;30;29;41;41;33;40;40;46;55;55;
0;0;0;0;74;85;85;20;30;30;29;41;41;33;40;40;46;55;55;
0;0;0;0;74;85;85;20;30;30;29;41;41;33;40;40;46;55;55;
0;0;0;0;74;85;85;20;30;30;29;41;41;33;40;40;46;55;55;
0;0;0;0;74;85;85;20;30;30;29;41;41;33;40;40;46;55;55;
0;0;0;0;74;85;85;20;30;30;29;41;41;33;40;40;46;55;55;
0;0;0;0;74;85;85;20;30;30;29;41;41;33;40;40;46;55;55;
0;0;0;0;74;85;85;20;30;30;29;41;41;33;40;40;46;55;55;
0;0;0;0;67;79;79;25;34;34;34;46;46;39;46;46;52;60;60;
0;0;0;0;68;80;80;27;39;39;37;51;51;39;50;50;53;64;64;
0;0;0;0;68;80;80;27;39;39;37;51;51;39;50;50;53;64;64;
0;0;0;0;68;80;80;27;39;39;37;51;51;39;50;50;53;64;64;
0;0;0;0;68;80;80;27;39;39;37;51;51;39;50;50;53;64;64;
0;0;0;0;68;80;80;27;39;39;37;51;51;39;50;50;53;64;64;
0;0;0;0;68;80;80;27;39;39;37;51;51;39;50;50;53;64;64;
0;0;0;0;68;80;80;27;39;39;37;51;51;39;50;50;53;64;64;
0;0;0;0;68;80;80;27;39;39;37;51;51;39;50;50;53;64;64;
0;0;0;0;68;80;80;27;39;39;37;51;51;39;50;50;53;64;64;
0;0;0;0;68;80;80;27;39;39;37;51;51;39;50;50;53;64;64;
0;0;0;0;68;80;80;27;39;39;37;51;51;39;50;50;53;64;64;
0;0;0;0;68;80;80;27;39;39;37;51;51;39;50;50;53;64;64;
0;0;0;0;68;80;80;27;39;39;37;51;51;39;50;50;53;64;64;
0;0;0;0;68;80;80;27;39;39;37;51;51;39;50;50;53;64;64;
0;0;0;0;68;80;80;27;39;39;37;51;51;39;50;50;53;64;64;
0;0;0;0;68;80;80;27;39;39;37;51;51;39;50;50;53;64;64;
0;0;0;0;68;80;80;27;39;39;37;51;51;39;50;50;53;64;64;
0;0;0;0;68;80;80;27;39;39;37;51;51;39;50;50;53;64;64;
0;0;0;0;68;80;80;27;39;39;37;51;51;39;50;50;53;64;64;
0;0;0;0;68;80;80;27;39;39;37;51;51;39;50;50;53;64;64;
0;0;0;0;68;80;80;27;39;39;37;51;51;39;50;50;53;64;64;
0;0;0;0;68;80;80;27;39;39;37;51;51;39;50;50;53;64;64;
0;0;0;0;68;80;80;27;39;39;37;51;51;39;50;50;53;64;64;
0;0;0;0;68;80;80;27;39;39;37;51;51;39;50;50;53;64;64;
0;0;0;0;68;80;80;27;39;39;37;51;51;39;50;50;53;64;64;
0;0;0;0;68;80;80;27;39;39;37;51;51;39;50;50;53;64;64;
0;0;0;0;68;80;80;27;39;39;37;51;51;39;50;50;53;64;64;
0;0;0;0;68;80;80;27;39;39;37;51;51;39;50;50;53;64;64;
0;0;0;0;68;80;80;27;39;39;37;51;51;39;50;50;53;64;64;
0;0;0;0;68;80;80;27;39;39;37;51;51;39;50;50;53;64;64;
0;0;0;0;68;80;80;27;39;39;37;51;51;39;50;50;53;64;64;
0;0;0;0;68;80;80;27;39;39;37;51;51;39;50;50;53;64;64;
0;0;0;0;68;80;80;27;39;39;37;51;51;39;50;50;53;64;64;
0;0;0;0;68;80;80;27;39;39;37;51;51;39;50;50;53;64;64;
0;0;0;0;68;80;80;27;39;39;37;51;51;39;50;50;53;64;64;
0;0;0;0;68;80;80;27;39;39;37;51;51;39;50;50;53;64;64;
0;0;0;0;68;80;80;27;39;39;37;51;51;39;50;50;53;64;64;
0;0;0;0;68;80;80;27;39;39;37;51;51;39;50;50;53;64;64;
0;0;0;0;68;80;80;27;39;39;37;51;51;39;50;50;53;64;64;
0;0;0;0;68;80;80;27;39;39;37;51;51;39;50;50;53;64;64;
0;0;0;0;68;80;80;27;39;39;37;51;51;39;50;50;53;64;64;
0;0;0;0;68;80;80;27;39;39;37;51;51;39;50;50;53;64;64;
0;0;0;0;68;80;80;27;39;39;37;51;51;39;50;50;53;64;64;
0;0;0;0;68;80;80;27;39;39;37;51;51;39;50;50;53;64;64;
0;0;0;0;68;80;80;27;39;39;37;51;51;39;50;50;53;64;64;
0;0;0;0;68;80;80;27;39;39;37;51;51;39;50;50;53;64;64;
0;0;0;0;68;80;80;27;39;39;37;51;51;39;50;50;53;64;64;
0;0;0;0;68;80;80;27;39;39;37;51;51;39;50;50;53;64;64;
0;0;0;0;68;80;80;27;39;39;37;51;51;39;50;50;53;64;64;
0;0;0;0;68;80;80;27;39;39;37;51;51;39;50;50;53;64;64;
0;0;0;0;68;80;80;27;39;39;37;51;51;39;50;50;53;64;64;
0;0;0;0;68;80;80;27;39;39;37;51;51;39;50;50;53;64;64;
0;0;0;0;68;80;80;27;39;39;37;51;51;39;50;50;53;64;64;
0;0;0;0;68;80;80;27;39;39;37;51;51;39;50;50;53;64;64;
0;0;0;0;68;80;80;27;39;39;37;51;51;39;50;50;53;64;64;
0;0;0;0;68;80;80;27;39;39;37;51;51;39;50;50;53;64;64;
0;0;0;0;68;80;80;27;39;39;37;51;51;39;50;50;53;64;64;
0;0;0;0;68;80;80;27;39;39;37;51;51;39;50;50;53;64;64;
0;0;0;0;68;80;80;27;39;39;37;51;51;39;50;50;53;64;64;
0;0;0;0;68;80;80;27;39;39;37;51;51;39;50;50;53;64;64;
0;0;0;0;68;80;80;27;39;39;37;51;51;39;50;50;53;64;64;
0;0;0;0;68;80;80;27;39;39;37;51;51;39;50;50;53;64;64;
0;0;0;0;68;80;80;27;39;39;37;51;51;39;50;50;53;64;64;
0;0;0;0;68;80;80;27;39;39;37;51;51;39;50;50;53;64;64;
0;0;0;0;68;80;80;27;39;39;37;51;51;39;50;50;53;64;64;
0;0;0;0;68;80;80;27;39;39;37;51;51;39;50;50;53;64;64;
0;0;0;0;68;80;80;27;39;39;37;51;51;39;50;50;53;64;64;
0;0;0;0;68;80;80;27;39;39;37;51;51;39;50;50;53;64;64;
0;0;0;0;68;80;80;27;39;39;37;51;51;39;50;50;53;64;64;
0;0;0;0;68;80;80;27;39;39;37;51;51;39;50;50;53;64;64;
0;0;0;0;68;80;80;27;39;39;37;51;51;39;50;50;53;64;64;
0;0;0;0;68;80;80;27;39;39;37;51;51;39;50;50;53;64;64;
0;0;0;0;68;80;80;27;39;39;37;51;51;39;50;50;53;64;64;
0;0;0;0;68;80;80;27;39;39;37;51;51;39;50;50;53;64;64;
0;0;0;0;68;80;80;27;39;39;37;51;51;39;50;50;53;64;64;
0;0;0;0;68;80;80;27;39;39;37;51;51;39;50;50;53;64;64;
0;0;0;0;68;80;80;27;39;39;37;51;51;39;50;50;53;64;64;
0;0;0;0;68;80;80;27;39;39;37;51;51;39;50;50;53;64;64;
0;0;0;0;68;80;80;27;39;39;37;51;51;39;50;50;53;64;64;
0;0;0;0;68;80;80;27;39;39;37;51;51;39;50;50;53;64;64;
0;0;0;0;68;80;80;27;39;39;37;51;51;39;50;50;53;64;64;
0;0;0;0;68;80;80;27;39;39;37;51;51;39;50;50;53;64;64;
0;0;0;0;68;80;80;27;39;39;37;51;51;39;50;50;53;64;64;
0;0;0;0;68;80;80;27;39;39;37;51;51;39;50;50;53;64;64;
0;0;0;0;68;80;80;27;39;39;37;51;51;39;50;50;53;64;64;
0;0;0;0;68;80;80;27;39;39;37;51;51;39;50;50;53;64;64;
0;0;0;0;68;80;80;27;39;39;37;51;51;39;50;50;53;64;64;
0;0;0;0;68;80;80;27;39;39;37;51;51;39;50;50;53;64;64;
0;0;0;0;68;80;80;27;39;39;37;51;51;39;50;50;53;64;64;
0;0;0;0;68;80;80;27;39;39;37;51;51;39;50;50;53;64;64;
0;0;0;0;68;80;80;27;39;39;37;51;51;39;50;50;53;64;64;
0;0;0;0;68;80;80;27;39;39;37;51;51;39;50;50;53;64;64;
0;0;0;0;68;80;80;27;39;39;37;51;51;39;50;50;53;64;64;
0;0;0;0;68;80;80;27;39;39;37;51;51;39;50;50;53;64;64;
0;0;0;0;68;80;80;27;39;39;37;51;51;39;50;50;53;64;64;
0;0;0;0;68;80;80;27;39;39;37;51;51;39;50;50;53;64;64;
0;0;0;0;68;80;80;27;39;39;37;51;51;39;50;50;53;64;64;
0;0;0;0;68;80;80;27;39;39;37;51;51;39;50;50;53;64;64;
0;0;0;0;68;80;80;27;39;39;37;51;51;39;50;50;53;64;64;
0;0;0;0;68;80;80;27;39;39;37;51;51;39;50;50;53;64;64;
0;0;0;0;68;80;80;27;39;39;37;51;51;39;50;50;53;64;64;
0;0;0;0;64;75;75;40;56;56;51;69;69;50;66;66;64;80;80;
0;0;0;0;64;75;75;40;56;56;51;69;69;50;66;66;64;80;80;
0;0;0;0;64;75;75;40;56;56;51;69;69;50;66;66;64;80;80;
0;0;0;0;59;69;69;46;60;60;57;72;72;57;71;71;70;84;84;
0;0;0;0;59;69;69;46;60;60;57;72;72;57;71;71;70;84;84;
0;0;0;0;59;69;69;46;60;60;57;72;72;57;71;71;70;84;84;
0;0;0;0;59;69;69;46;60;60;57;72;72;57;71;71;70;84;84;
0;0;0;0;59;69;69;46;60;60;57;72;72;57;71;71;70;84;84;
0;0;0;0;59;69;69;46;60;60;57;72;72;57;71;71;70;84;84;
0;0;0;0;59;69;69;46;60;60;57;72;72;57;71;71;70;84;84;
0;0;0;0;58;68;68;46;60;60;58;72;72;58;72;72;71;84;84;
0;0;0;0;58;68;68;46;60;60;58;72;72;58;72;72;71;84;84;
0;0;0;0;58;68;68;46;60;60;58;72;72;58;72;72;71;84;84;
0;0;0;0;58;68;68;46;60;60;58;72;72;58;72;72;71;84;84;
0;0;0;0;58;68;68;46;60;60;58;72;72;58;72;72;71;84;84;
0;0;0;0;58;68;68;46;60;60;58;72;72;58;72;72;71;84;84;
0;0;0;0;58;68;68;46;60;60;58;72;72;58;72;72;71;84;84;
0;0;0;0;58;68;68;46;60;60;58;72;72;58;72;72;71;84;84;
0;0;0;0;58;68;68;46;60;60;58;72;72;58;72;72;71;84;84;
0;0;0;0;58;68;68;46;60;60;58;72;72;58;72;72;71;84;84;
0;0;0;0;58;68;68;46;60;60;58;72;72;58;72;72;71;84;84;
0;0;0;0;58;68;68;46;60;60;58;72;72;58;72;72;71;84;84;
0;0;0;0;58;68;68;46;60;60;58;72;72;58;72;72;71;84;84;
0;0;0;0;58;68;68;46;60;60;58;72;72;58;72;72;71;84;84;
0;0;0;0;58;68;68;46;60;60;58;72;72;58;72;72;71;84;84;
0;0;0;0;58;68;68;46;60;60;58;72;72;58;72;72;71;84;84;
0;0;0;0;74;82;82;35;55;55;45;65;65;47;65;65;59;76;76;
0;0;0;0;74;82;82;35;55;55;45;65;65;47;65;65;59;76;76;
0;0;0;0;74;82;82;35;55;55;45;65;65;47;65;65;59;76;76;
0;0;0;0;74;82;82;35;55;55;45;65;65;47;65;65;59;76;76;
0;0;0;0;74;82;82;35;55;55;45;65;65;47;65;65;59;76;76;
0;0;0;0;74;82;82;35;55;55;45;65;65;47;65;65;59;76;76;
0;0;0;0;74;81;81;37;57;57;46;67;67;49;67;67;60;78;78;
0;0;0;0;74;81;81;37;57;57;46;67;67;49;67;67;60;78;78;
0;0;0;0;74;81;81;37;57;57;46;67;67;49;67;67;60;78;78;
0;0;0;0;74;81;81;37;57;57;46;67;67;49;67;67;60;78;78;
0;0;0;0;74;81;81;37;57;57;46;67;67;49;67;67;60;78;78;
0;0;0;0;74;81;81;37;57;57;46;67;67;49;67;67;60;78;78;
0;0;0;0;74;81;81;37;57;57;46;67;67;49;67;67;60;78;78;
0;0;0;0;74;81;81;37;57;57;46;67;67;49;67;67;60;78;78;
0;0;0;0;74;81;81;37;57;57;46;67;67;49;67;67;60;78;78;
0;0;0;0;74;81;81;37;57;57;46;67;67;49;67;67;60;78;78;
0;0;0;0;74;81;81;37;57;57;46;67;67;49;67;67;60;78;78;
0;0;0;0;74;81;81;37;57;57;46;67;67;49;67;67;60;78;78;
0;0;0;0;74;81;81;37;57;57;46;67;67;49;67;67;60;78;78;
0;0;0;0;74;81;81;37;57;57;46;67;67;49;67;67;60;78;78;
0;0;0;0;74;81;81;37;57;57;46;67;67;49;67;67;60;78;78;
0;0;0;0;74;81;81;37;57;57;46;67;67;49;67;67;60;78;78;
0;0;0;0;74;81;81;37;57;57;46;67;67;49;67;67;60;78;78;
0;0;0;0;74;81;81;37;57;57;46;67;67;49;67;67;60;78;78;
0;0;0;0;74;81;81;37;57;57;46;67;67;49;67;67;60;78;78;
0;0;0;0;74;81;81;37;57;57;46;67;67;49;67;67;60;78;78;
0;0;0;0;74;81;81;37;57;57;46;67;67;49;67;67;60;78;78;
0;0;0;0;74;81;81;37;57;57;46;67;67;49;67;67;60;78;78;
0;0;0;0;74;81;81;37;57;57;46;67;67;49;67;67;60;78;78;
0;0;0;0;73;81;81;36;56;56;46;65;65;50;67;67;60;78;78;
0;0;0;0;73;81;81;36;56;56;46;65;65;50;67;67;60;78;78;
0;0;0;0;73;81;81;36;56;56;46;65;65;50;67;67;60;78;78;
0;0;0;0;73;81;81;36;56;56;46;65;65;50;67;67;60;78;78;
0;0;0;0;73;81;81;36;56;56;46;65;65;50;67;67;60;78;78;
0;0;0;0;73;81;81;36;56;56;46;65;65;50;67;67;60;78;78;
0;0;0;0;73;81;81;36;56;56;46;65;65;50;67;67;60;78;78;
0;0;0;0;73;81;81;36;56;56;46;65;65;50;67;67;60;78;78;
0;0;0;0;73;81;81;36;56;56;46;65;65;50;67;67;60;78;78;
0;0;0;0;73;81;81;36;56;56;46;65;65;50;67;67;60;78;78;
0;0;0;0;73;81;81;36;56;56;46;65;65;50;67;67;60;78;78;
0;0;0;0;73;81;81;36;56;56;46;65;65;50;67;67;60;78;78;
0;0;0;0;73;81;81;36;56;56;46;65;65;50;67;67;60;78;78;
0;0;0;0;73;81;81;36;56;56;46;65;65;50;67;67;60;78;78;
0;0;0;0;73;81;81;36;56;56;46;65;65;50;67;67;60;78;78;
0;0;0;0;73;81;81;36;56;56;46;65;65;50;67;67;60;78;78;
0;0;0;0;73;81;81;36;56;56;46;65;65;50;67;67;60;78;78;
0;0;0;0;73;81;81;36;56;56;46;65;65;50;67;67;60;78;78;
0;0;0;0;73;81;81;36;56;56;46;65;65;50;67;67;60;78;78;
0;0;0;0;73;81;81;36;56;56;46;65;65;50;67;67;60;78;78;
0;0;0;0;73;81;81;36;56;56;46;65;65;50;67;67;60;78;78;
0;0;0;0;73;81;81;36;56;56;46;65;65;50;67;67;60;78;78;
0;0;0;0;73;81;81;36;56;56;46;65;65;50;67;67;60;78;78;
0;0;0;0;73;81;81;36;56;56;46;65;65;50;67;67;60;78;78;
0;0;0;0;73;81;81;36;56;56;46;65;65;50;67;67;60;78;78;
0;0;0;0;73;81;81;36;56;56;46;65;65;50;67;67;60;78;78;
0;0;0;0;73;81;81;36;56;56;46;65;65;50;67;67;60;78;78;
0;0;0;0;73;81;81;36;56;56;46;65;65;50;67;67;60;78;78;
0;0;0;0;73;81;81;36;56;56;46;65;65;50;67;67;60;78;78;
0;0;0;0;73;81;81;36;56;56;46;65;65;50;67;67;60;78;78;
0;0;0;0;73;81;81;36;56;56;46;65;65;50;67;67;60;78;78;
0;0;0;0;93;94;94;7;34;34;51;75;75;94;97;97;95;96;96;
0;0;0;0;93;94;94;7;34;34;51;75;75;94;97;97;95;96;96;
0;0;0;0;93;94;94;7;34;34;51;75;75;94;97;97;95;96;96;
0;0;0;0;93;93;93;8;34;34;50;74;74;94;96;96;96;97;97;
0;0;0;0;93;93;93;8;34;34;50;74;74;94;96;96;96;97;97;
0;0;0;0;93;93;93;8;34;34;50;74;74;94;96;96;96;97;97;
0;0;0;2;93;93;93;8;34;34;50;74;74;94;96;96;96;97;97;
0;0;0;0;93;93;93;8;34;34;50;74;74;94;96;96;96;97;97;
0;0;0;0;93;93;93;8;34;34;50;74;74;94;96;96;96;97;97;
0;0;0;0;93;93;93;8;34;34;50;74;74;94;96;96;96;97;97;
0;0;0;0;93;93;93;8;34;34;50;74;74;94;96;96;96;97;97;
0;0;0;0;93;93;93;8;34;34;50;74;74;94;96;96;96;97;97;
0;0;0;0;93;93;93;8;34;34;50;74;74;94;96;96;96;97;97;
0;0;0;0;93;93;93;8;34;34;50;74;74;94;96;96;96;97;97;
0;0;0;0;93;93;93;8;34;34;50;74;74;94;96;96;96;97;97;
0;0;0;0;93;93;93;8;34;34;50;74;74;94;96;96;96;97;97;
0;0;0;0;93;93;93;8;34;34;50;74;74;94;96;96;96;97;97;
0;0;0;0;93;93;93;8;34;34;50;74;74;94;96;96;96;97;97;
0;0;0;0;93;93;93;8;34;34;50;74;74;94;96;96;96;97;97;
0;0;0;0;93;93;93;8;34;34;50;74;74;94;96;96;96;97;97;
0;0;0;0;93;93;93;8;34;34;50;74;74;94;96;96;96;97;97;
0;0;0;0;93;93;93;8;34;34;50;74;74;94;96;96;96;97;97;
0;0;0;0;93;93;93;8;34;34;50;74;74;94;96;96;96;97;97;
0;0;0;0;93;93;93;8;34;34;50;74;74;94;96;96;96;97;97;
0;0;0;0;93;93;93;8;34;34;50;74;74;94;96;96;96;97;97;
0;0;0;0;93;93;93;8;34;34;50;74;74;94;96;96;96;97;97;
0;0;0;0;93;93;93;8;34;34;50;74;74;94;96;96;96;97;97;
0;0;0;0;93;93;93;8;34;34;50;74;74;94;96;96;96;97;97;
0;0;0;0;93;93;93;8;34;34;50;74;74;94;96;96;96;97;97;
0;0;0;0;93;93;93;8;34;34;50;74;74;94;96;96;96;97;97;
0;0;0;0;93;93;93;8;34;34;50;74;74;94;96;96;96;97;97;
0;0;0;0;93;93;93;8;34;34;50;74;74;94;96;96;96;97;97;
0;0;0;0;93;93;93;8;34;34;50;74;74;94;96;96;96;97;97;
0;0;0;0;93;93;93;8;34;34;50;74;74;94;96;96;96;97;97;
0;0;0;0;93;93;93;8;34;34;50;74;74;94;96;96;96;97;97;
0;0;0;0;93;93;93;8;34;34;50;74;74;94;96;96;96;97;97;
0;0;0;0;93;93;93;8;34;34;50;74;74;94;96;96;96;97;97;
0;0;0;0;93;93;93;8;34;34;50;74;74;94;96;96;96;97;97;
0;0;0;0;93;93;93;8;34;34;50;74;74;94;96;96;96;97;97;
0;0;0;0;93;93;93;8;34;34;50;74;74;94;96;96;96;97;97;
0;0;0;0;93;93;93;8;34;34;50;74;74;94;96;96;96;97;97;
0;0;0;0;93;93;93;8;34;34;50;74;74;94;96;96;96;97;97;
0;0;0;0;93;93;93;8;34;34;50;74;74;94;96;96;96;97;97;
0;0;0;0;93;93;93;8;34;34;50;74;74;94;96;96;96;97;97;
0;0;0;0;93;93;93;8;34;34;50;74;74;94;96;96;96;97;97;
0;0;0;0;93;93;93;8;34;34;50;74;74;94;96;96;96;97;97;
0;0;0;0;93;93;93;8;34;34;50;74;74;94;96;96;96;97;97;
0;0;0;0;93;93;93;8;34;34;50;74;74;94;96;96;96;97;97;
0;0;0;0;93;93;93;8;34;34;50;74;74;94;96;96;96;97;97;
0;0;0;0;93;93;93;8;34;34;50;74;74;94;96;96;96;97;97;
0;0;0;0;93;93;93;8;34;34;50;74;74;94;96;96;96;97;97;
0;0;0;0;93;93;93;8;34;34;50;74;74;94;96;96;96;97;97;
0;0;0;0;93;93;93;8;34;34;50;74;74;94;96;96;96;97;97;
0;0;0;0;93;93;93;8;34;34;50;74;74;94;96;96;96;97;97;
0;0;0;0;93;93;93;8;34;34;50;74;74;94;96;96;96;97;97;
0;0;0;0;93;93;93;8;34;34;50;74;74;94;96;96;96;97;97;
0;0;0;0;93;93;93;8;34;34;50;74;74;94;96;96;96;97;97;
0;0;0;0;93;93;93;8;34;34;50;74;74;94;96;96;96;97;97;
0;0;0;0;93;93;93;8;34;34;50;74;74;94;96;96;96;97;97;
0;0;0;0;93;93;93;8;34;34;50;74;74;94;96;96;96;97;97;
0;0;0;0;93;93;93;8;34;34;50;74;74;94;96;96;96;97;97;
0;0;0;0;93;93;93;8;34;34;50;74;74;94;96;96;96;97;97;
0;0;0;0;93;93;93;8;34;34;50;74;74;94;96;96;96;97;97;
0;0;0;0;91;89;89;14;37;37;45;67;67;88;91;91;95;97;97;
0;0;0;0;91;89;89;14;37;37;45;67;67;88;91;91;95;97;97;
0;0;0;0;91;89;89;14;37;37;45;67;67;88;91;91;95;97;97;
0;0;0;0;91;89;89;14;37;37;45;67;67;88;91;91;95;97;97;
0;0;0;0;91;89;89;14;37;37;45;67;67;88;91;91;95;97;97;
0;0;0;0;91;89;89;14;37;37;45;67;67;88;91;91;95;97;97;
0;0;0;0;91;89;89;14;37;37;45;67;67;88;91;91;95;97;97;
0;0;0;0;91;89;89;14;37;37;45;67;67;88;91;91;95;97;97;
0;0;0;0;91;89;89;14;37;37;45;67;67;88;91;91;95;97;97;
0;0;0;0;91;89;89;14;37;37;45;67;67;88;91;91;95;97;97;
0;0;0;0;92;89;89;16;40;40;46;67;67;87;90;90;95;97;97;
0;0;0;0;92;89;89;16;40;40;46;67;67;87;90;90;95;97;97;
0;0;0;0;92;89;89;16;40;40;46;67;67;87;90;90;95;97;97;
0;0;0;0;92;89;89;16;40;40;46;67;67;87;90;90;95;97;97;
0;0;0;0;92;89;89;16;40;40;46;67;67;87;90;90;95;97;97;
0;0;0;0;92;89;89;16;40;40;46;67;67;87;90;90;95;97;97;
0;0;0;0;92;89;89;16;40;40;46;67;67;87;90;90;95;97;97;
0;0;0;0;92;89;89;16;40;40;46;67;67;87;90;90;95;97;97;
0;0;0;0;92;89;89;16;40;40;46;67;67;87;90;90;95;97;97;
0;0;0;0;92;89;89;16;40;40;46;67;67;87;90;90;95;97;97;
0;0;0;0;94;91;91;60;72;72;70;83;83;84;91;91;87;97;97;
0;0;0;0;94;91;91;60;72;72;70;83;83;84;91;91;87;97;97;
0;0;0;0;94;91;91;60;72;72;70;83;83;84;91;91;87;97;97;
0;0;0;0;94;91;91;60;72;72;70;83;83;84;91;91;87;97;97;
0;0;0;0;94;91;91;60;72;72;70;83;83;84;91;91;87;97;97;
0;0;0;0;94;91;91;60;72;72;70;83;83;84;91;91;87;97;97;
0;0;0;0;94;91;91;60;72;72;70;83;83;84;91;91;87;97;97;
0;0;0;0;94;93;93;77;82;82;81;89;89;83;90;90;81;95;95;
0;0;0;0;94;93;93;77;82;82;81;89;89;83;90;90;81;95;95;
0;0;0;0;94;93;93;77;82;82;81;89;89;83;90;90;81;95;95;
0;0;0;0;94;93;93;77;82;82;81;89;89;83;90;90;81;95;95;
0;0;0;0;94;93;93;77;82;82;81;89;89;83;90;90;81;95;95;
0;0;0;0;94;93;93;77;82;82;81;89;89;83;90;90;81;95;95;
0;0;0;0;94;93;93;77;82;82;81;89;89;83;90;90;81;95;95;
0;0;0;0;94;93;93;77;82;82;81;89;89;83;90;90;81;95;95;
0;0;0;0;94;93;93;77;82;82;81;89;89;83;90;90;81;95;95;
0;0;0;0;94;93;93;77;82;82;81;89;89;83;90;90;81;95;95;
0;0;0;0;94;93;93;77;82;82;81;89;89;83;90;90;81;95;95;
0;0;0;0;94;93;93;77;82;82;81;89;89;83;90;90;81;95;95;
0;0;0;0;94;93;93;77;82;82;81;89;89;83;90;90;81;95;95;
0;0;0;0;94;93;93;77;82;82;81;89;89;83;90;90;81;95;95;
0;0;0;0;94;93;93;77;82;82;81;89;89;83;90;90;81;95;95;
0;0;0;0;94;93;93;77;82;82;81;89;89;83;90;90;81;95;95;
0;0;0;0;94;93;93;77;82;82;81;89;89;83;90;90;81;95;95;
0;0;0;0;94;93;93;77;82;82;81;89;89;83;90;90;81;95;95;
0;0;0;0;94;93;93;77;82;82;81;89;89;83;90;90;81;95;95;
0;0;0;0;94;93;93;77;82;82;81;89;89;83;90;90;81;95;95;
0;0;0;0;94;93;93;77;82;82;81;89;89;83;90;90;81;95;95;
0;0;0;0;90;95;95;89;91;91;87;92;92;86;93;93;81;95;95;
0;0;0;0;90;95;95;89;91;91;87;92;92;86;93;93;81;95;95;
0;0;0;0;90;95;95;89;91;91;87;92;92;86;93;93;81;95;95;
0;0;0;0;90;95;95;89;91;91;87;92;92;86;93;93;81;95;95;
0;0;0;0;90;95;95;89;91;91;87;92;92;86;93;93;81;95;95;
0;0;0;0;90;95;95;89;91;91;87;92;92;86;93;93;81;95;95;
0;0;0;0;90;95;95;89;91;91;87;92;92;86;93;93;81;95;95;
0;0;0;0;90;95;95;89;91;91;87;92;92;86;93;93;81;95;95;
0;0;0;0;90;95;95;89;91;91;87;92;92;86;93;93;81;95;95;
0;0;0;0;90;95;95;89;91;91;87;92;92;86;93;93;81;95;95;
0;0;0;0;90;95;95;89;91;91;87;92;92;86;93;93;81;95;95;
0;0;0;0;90;95;95;89;91;91;87;92;92;86;93;93;81;95;95;
0;0;0;0;90;95;95;89;91;91;87;92;92;86;93;93;81;95;95;
0;0;0;0;90;95;95;89;91;91;87;92;92;86;93;93;81;95;95;
0;0;0;0;90;95;95;89;91;91;87;92;92;86;93;93;81;95;95;
0;0;0;0;90;95;95;89;91;91;87;92;92;86;93;93;81;95;95;
0;0;0;0;90;95;95;89;91;91;87;92;92;86;93;93;81;95;95;
0;0;0;0;90;95;95;89;91;91;87;92;92;86;93;93;81;95;95;
0;0;0;0;90;95;95;89;91;91;87;92;92;86;93;93;81;95;95;
0;0;0;0;90;95;95;89;91;91;87;92;92;86;93;93;81;95;95;
0;0;0;0;90;95;95;89;91;91;87;92;92;86;93;93;81;95;95;
0;0;0;0;87;95;95;91;93;93;88;93;93;87;94;94;82;94;94;
0;0;0;0;87;95;95;91;93;93;88;93;93;87;94;94;82;94;94;
0;0;0;0;87;95;95;91;93;93;88;93;93;87;94;94;82;94;94;
0;0;0;0;87;95;95;91;93;93;88;93;93;87;94;94;82;94;94;
0;0;0;0;87;95;95;91;93;93;88;93;93;87;94;94;82;94;94;
0;0;0;0;87;95;95;91;93;93;88;93;93;87;94;94;82;94;94;
0;0;0;0;87;95;95;91;93;93;88;93;93;87;94;94;82;94;94;
0;0;0;0;87;95;95;91;93;93;88;93;93;87;94;94;82;94;94;
0;0;0;0;87;95;95;91;93;93;88;93;93;87;94;94;82;94;94;
0;0;0;0;87;95;95;91;93;93;88;93;93;87;94;94;82;94;94;
0;0;0;0;87;95;95;91;93;93;88;93;93;87;94;94;82;94;94;
0;0;0;0;87;95;95;91;93;93;88;93;93;87;94;94;82;94;94;
0;0;0;0;87;95;95;91;93;93;88;93;93;87;94;94;82;94;94;
0;0;0;0;87;95;95;91;93;93;88;93;93;87;94;94;82;94;94;
0;0;0;0;87;95;95;91;93;93;88;93;93;87;94;94;82;94;94;
0;0;0;0;87;95;95;91;93;93;88;93;93;87;94;94;82;94;94;
0;0;0;0;87;95;95;91;93;93;88;93;93;87;94;94;82;94;94;
0;0;0;0;87;95;95;91;93;93;88;93;93;87;94;94;82;94;94;
0;0;0;0;87;95;95;91;93;93;88;93;93;87;94;94;82;94;94;
0;0;0;0;87;95;95;91;93;93;88;93;93;87;94;94;82;94;94;
0;0;0;0;87;95;95;91;93;93;88;93;93;87;94;94;82;94;94;
0;0;0;0;87;95;95;91;93;93;88;93;93;87;94;94;82;94;94;
0;0;0;0;84;94;94;94;96;96;89;93;93;89;94;94;82;93;93;
0;0;0;0;84;94;94;94;96;96;89;93;93;89;93;93;83;93;93;
0;0;0;0;84;94;94;94;96;96;89;93;93;89;93;93;83;93;93;
0;0;0;0;84;94;94;94;96;96;89;93;93;89;93;93;83;93;93;
0;0;0;0;84;94;94;94;96;96;89;93;93;89;93;93;83;93;93;
0;0;0;0;84;94;94;94;96;96;89;93;93;89;93;93;83;93;93;
0;0;0;0;84;94;94;94;96;96;89;93;93;89;93;93;83;93;93;
0;0;0;0;84;94;94;94;96;96;89;93;93;89;93;93;83;93;93;
0;0;0;0;84;94;94;94;96;96;89;93;93;89;93;93;83;93;93;
0;0;0;0;84;94;94;94;96;96;89;93;93;89;93;93;83;93;93;
0;0;0;0;84;94;94;94;96;96;89;93;93;89;93;93;83;93;93;
0;0;0;0;84;94;94;94;96;96;89;93;93;89;93;93;83;93;93;
0;0;0;0;84;94;94;94;96;96;89;93;93;89;93;93;83;93;93;
0;0;0;0;84;94;94;94;96;96;89;93;93;89;93;93;83;93;93;
0;0;0;0;84;94;94;94;96;96;89;93;93;89;93;93;83;93;93;
0;0;0;0;84;94;94;94;96;96;89;93;93;89;93;93;83;93;93;
0;0;0;0;84;94;94;94;96;96;89;93;93;89;93;93;83;93;93;
0;0;0;0;84;94;94;94;96;96;89;93;93;89;93;93;83;93;93;
0;0;0;0;84;94;94;94;96;96;89;93;93;89;93;93;83;93;93;
0;0;0;0;84;94;94;94;96;96;89;93;93;89;93;93;83;93;93;
0;0;0;0;84;94;94;94;96;96;89;93;93;89;93;93;83;93;93;
0;0;0;0;84;94;94;94;96;96;89;93;93;89;93;93;83;93;93;
0;0;0;0;84;94;94;94;96;96;89;93;93;89;93;93;83;93;93;
0;0;0;0;84;94;94;94;96;96;89;93;93;89;93;93;83;93;93;
0;0;0;0;84;94;94;94;96;96;89;93;93;89;93;93;83;93;93;
0;0;0;0;84;94;94;94;96;96;89;93;93;89;93;93;83;93;93;
0;0;0;0;84;94;94;94;96;96;89;93;93;89;93;93;83;93;93;
0;0;0;0;84;94;94;94;96;96;89;93;93;89;93;93;83;93;93;
0;0;0;0;84;94;94;94;96;96;89;93;93;89;93;93;83;93;93;
0;0;0;0;84;94;94;94;96;96;89;93;93;89;93;93;83;93;93;
0;0;0;0;84;94;94;94;96;96;89;93;93;89;93;93;83;93;93;
0;0;0;0;84;94;94;94;96;96;89;93;93;89;93;93;83;93;93;
0;0;0;0;84;94;94;94;96;96;89;93;93;89;93;93;83;93;93;
0;0;0;0;84;94;94;94;96;96;89;93;93;89;93;93;83;93;93;
0;0;0;0;84;94;94;94;96;96;89;93;93;89;93;93;83;93;93;
0;0;0;0;84;94;94;94;96;96;89;93;93;89;93;93;83;93;93;
0;0;0;0;84;94;94;94;96;96;89;93;93;89;93;93;83;93;93;
0;0;0;0;84;94;94;94;96;96;89;93;93;89;93;93;83;93;93;
0;0;0;0;84;94;94;94;96;96;89;93;93;89;93;93;83;93;93;
0;0;0;0;84;94;94;94;96;96;89;93;93;89;93;93;83;93;93;
0;0;0;0;84;94;94;94;96;96;89;93;93;89;93;93;83;93;93;
0;0;0;0;84;94;94;94;96;96;89;93;93;89;93;93;83;93;93;
0;0;0;0;84;94;94;94;96;96;89;93;93;89;93;93;83;93;93;
0;0;0;0;84;94;94;94;96;96;89;93;93;89;93;93;83;93;93;
0;0;0;0;84;94;94;94;96;96;89;93;93;89;93;93;83;93;93;
0;0;0;0;84;94;94;94;96;96;89;93;93;89;93;93;83;93;93;
0;0;0;0;84;94;94;94;96;96;89;93;93;89;93;93;83;93;93;
0;0;0;0;84;94;94;94;96;96;89;93;93;89;93;93;83;93;93;
0;0;0;0;84;94;94;94;96;96;89;93;93;89;93;93;83;93;93;
0;0;0;0;84;94;94;94;96;96;89;93;93;89;93;93;83;93;93;
0;0;0;0;84;94;94;94;96;96;89;93;93;89;93;93;83;93;93;
0;0;0;0;84;94;94;94;96;96;89;93;93;89;93;93;83;93;93;
0;0;0;0;84;94;94;94;96;96;89;93;93;89;93;93;83;93;93;
0;0;0;0;84;94;94;94;96;96;89;93;93;89;93;93;83;93;93;
0;0;0;0;84;94;94;94;96;96;89;93;93;89;93;93;83;93;93;
0;0;0;0;84;94;94;94;96;96;89;93;93;89;93;93;83;93;93;
0;0;0;0;84;94;94;94;96;96;89;93;93;89;93;93;83;93;93;
0;0;0;0;84;94;94;94;96;96;89;93;93;89;93;93;83;93;93;
0;0;0;0;84;94;94;94;96;96;89;93;93;89;93;93;83;93;93;
0;0;0;0;84;94;94;94;96;96;89;93;93;89;93;93;83;93;93;
0;0;0;0;84;94;94;94;96;96;89;93;93;89;93;93;83;93;93;
0;0;0;0;84;94;94;94;96;96;89;93;93;89;93;93;83;93;93;
0;0;0;0;84;94;94;94;96;96;89;93;93;89;93;93;83;93;93;
0;0;0;0;88;95;95;94;95;95;90;93;93;89;93;93;83;94;94;
0;0;0;0;88;95;95;94;95;95;90;93;93;89;93;93;83;94;94;
0;0;0;0;88;95;95;94;95;95;90;93;93;89;93;93;83;94;94;
0;0;0;0;88;95;95;94;95;95;90;93;93;89;93;93;83;94;94;
0;0;0;0;88;95;95;94;95;95;90;93;93;89;93;93;83;94;94;
0;0;0;0;88;95;95;94;95;95;90;93;93;89;93;93;83;94;94;
0;0;0;0;88;95;95;94;95;95;90;93;93;89;93;93;83;94;94;
0;0;0;0;90;95;95;92;94;94;91;94;94;89;93;93;83;94;94;
0;0;0;0;90;95;95;92;94;94;91;94;94;89;93;93;83;94;94;
0;0;0;0;90;95;95;92;94;94;91;94;94;89;93;93;83;94;94;
0;0;0;0;90;95;95;92;94;94;91;94;94;89;93;93;83;94;94;
0;0;0;0;90;95;95;92;94;94;91;94;94;89;93;93;83;94;94;
0;0;0;0;90;95;95;92;94;94;91;94;94;89;93;93;83;94;94;
0;0;0;0;90;95;95;92;94;94;91;94;94;89;93;93;83;94;94;
0;0;0;0;90;95;95;92;94;94;91;94;94;89;93;93;83;94;94;
0;0;0;0;90;95;95;92;94;94;91;94;94;89;93;93;83;94;94;
0;0;0;0;90;95;95;92;94;94;91;94;94;89;93;93;83;94;94;
0;0;0;0;90;95;95;92;94;94;91;94;94;89;93;93;83;94;94;
0;0;0;0;90;95;95;92;94;94;91;94;94;89;93;93;83;94;94;
0;0;0;0;90;95;95;92;94;94;91;94;94;89;93;93;83;94;94;
0;0;0;0;90;95;95;92;94;94;91;94;94;89;93;93;83;94;94;
0;0;0;0;90;95;95;92;94;94;91;94;94;89;93;93;83;94;94;
0;0;0;0;90;95;95;92;94;94;91;94;94;89;93;93;83;94;94;
0;0;0;0;90;95;95;92;94;94;91;94;94;89;93;93;83;94;94;
0;0;0;0;90;95;95;92;94;94;91;94;94;89;93;93;83;94;94;
0;0;0;0;90;95;95;92;94;94;91;94;94;89;93;93;83;94;94;
0;0;0;0;90;95;95;92;94;94;91;94;94;89;93;93;83;94;94;
0;0;0;0;90;95;95;92;94;94;91;94;94;89;93;93;83;94;94;
0;0;0;0;90;95;95;92;94;94;91;94;94;89;93;93;83;94;94;
0;0;0;0;90;95;95;92;94;94;91;94;94;89;93;93;83;94;94;
0;0;0;0;90;95;95;92;94;94;91;94;94;89;93;93;83;94;94;
0;0;0;0;90;95;95;92;94;94;91;94;94;89;93;93;83;94;94;
0;0;0;0;90;95;95;92;94;94;91;94;94;89;93;93;83;94;94;
0;0;0;0;90;95;95;92;94;94;91;94;94;89;93;93;83;94;94;
0;0;0;0;90;95;95;92;94;94;91;94;94;89;93;93;83;94;94;
0;0;0;0;90;95;95;92;94;94;91;94;94;89;93;93;83;94;94;
0;0;0;0;90;95;95;92;94;94;91;94;94;89;93;93;83;94;94;
0;0;0;0;90;95;95;92;94;94;91;94;94;89;93;93;83;94;94;
0;0;0;0;90;95;95;92;94;94;91;94;94;89;93;93;83;94;94;
0;0;0;0;90;95;95;92;94;94;91;94;94;89;93;93;83;94;94;
0;0;0;0;90;95;95;92;94;94;91;94;94;89;93;93;83;94;94;
0;0;0;0;90;95;95;92;94;94;91;94;94;89;93;93;83;94;94;
0;0;0;0;90;95;95;92;94;94;91;94;94;89;93;93;83;94;94;
0;0;0;0;90;95;95;92;94;94;91;94;94;89;93;93;83;94;94;
0;0;0;0;90;95;95;92;94;94;91;94;94;89;93;93;83;94;94;
0;0;0;0;90;95;95;92;94;94;91;94;94;89;93;93;83;94;94;
0;0;0;0;90;95;95;92;94;94;91;94;94;89;93;93;83;94;94;
0;0;0;0;90;95;95;92;94;94;91;94;94;89;93;93;83;94;94;
0;0;0;0;90;95;95;92;94;94;91;94;94;89;93;93;83;94;94;
0;0;0;0;90;95;95;92;94;94;91;94;94;89;93;93;83;94;94;
0;0;0;0;90;95;95;92;94;94;91;94;94;89;93;93;83;94;94;
0;0;0;0;90;95;95;92;94;94;91;94;94;89;93;93;83;94;94;
0;0;0;0;90;95;95;92;94;94;91;94;94;89;93;93;83;94;94;
0;0;0;0;90;95;95;92;94;94;91;94;94;89;93;93;83;94;94;
0;0;0;0;90;95;95;92;94;94;91;94;94;89;93;93;83;94;94;
0;0;0;0;90;95;95;92;94;94;91;94;94;89;93;93;83;94;94;
0;0;0;0;90;95;95;92;94;94;91;94;94;89;93;93;83;94;94;
0;0;0;0;90;95;95;92;94;94;91;94;94;89;93;93;83;94;94;
0;0;0;0;94;95;95;89;91;91;93;95;95;89;93;93;84;95;95;
0;0;0;0;94;95;95;89;91;91;93;95;95;89;93;93;84;95;95;
0;0;0;0;94;95;95;89;91;91;93;95;95;89;93;93;84;95;95;
0;0;0;0;94;95;95;89;91;91;93;95;95;89;93;93;84;95;95;
0;0;0;0;94;95;95;89;91;91;93;95;95;89;93;93;84;95;95;
0;0;0;0;94;95;95;89;91;91;93;95;95;89;93;93;84;95;95;
0;0;0;0;94;95;95;89;91;91;93;95;95;89;93;93;84;95;95;
0;0;0;0;94;95;95;88;90;90;93;95;95;90;93;93;84;95;95;
0;0;0;0;94;95;95;88;90;90;93;95;95;90;93;93;84;95;95;
0;0;0;0;94;95;95;88;90;90;93;95;95;90;93;93;84;95;95;
0;0;0;0;94;95;95;88;90;90;93;95;95;90;93;93;84;95;95;
0;0;0;0;94;95;95;88;90;90;93;95;95;90;93;93;84;95;95;
0;0;0;0;94;95;95;88;90;90;93;95;95;90;93;93;84;95;95;
0;0;0;0;94;95;95;88;90;90;93;95;95;90;93;93;84;95;95;
0;0;0;0;94;95;95;88;90;90;93;95;95;90;93;93;84;95;95;
0;0;0;0;94;95;95;88;90;90;93;95;95;90;93;93;84;95;95;
0;0;0;0;94;95;95;88;90;90;93;95;95;90;93;93;84;95;95;
0;0;0;0;94;95;95;88;90;90;93;95;95;90;93;93;84;95;95;
0;0;0;0;94;95;95;88;90;90;93;95;95;90;93;93;84;95;95;
0;0;0;0;94;95;95;88;90;90;93;95;95;90;93;93;84;95;95;
0;0;0;0;94;95;95;88;90;90;93;95;95;90;93;93;84;95;95;
0;0;0;0;94;95;95;88;90;90;93;95;95;90;93;93;85;95;95;
0;0;0;0;94;95;95;88;90;90;93;95;95;90;93;93;85;95;95;
0;0;0;0;94;95;95;88;90;90;93;95;95;90;93;93;85;95;95;
0;0;0;0;94;95;95;88;90;90;93;95;95;90;93;93;85;95;95;
0;0;0;0;94;95;95;88;90;90;93;95;95;90;93;93;85;95;95;
0;0;0;0;94;95;95;88;90;90;93;95;95;90;93;93;85;95;95;
0;0;0;0;94;95;95;88;90;90;93;95;95;90;93;93;85;95;95;
0;0;0;0;94;95;95;88;90;90;93;95;95;90;93;93;85;95;95;
0;0;0;0;94;95;95;88;90;90;93;95;95;90;93;93;85;95;95;
0;0;0;0;94;95;95;88;90;90;93;95;95;90;93;93;85;95;95;
0;0;0;0;94;95;95;88;90;90;93;95;95;90;93;93;85;95;95;
0;0;0;0;94;95;95;88;90;90;93;95;95;90;93;93;85;95;95;
0;0;0;0;94;95;95;88;90;90;93;95;95;90;93;93;85;95;95;
0;0;0;0;94;95;95;88;90;90;93;95;95;90;93;93;85;95;95;
0;0;0;0;94;95;95;88;90;90;93;95;95;90;93;93;85;95;95;
0;0;0;0;94;95;95;88;90;90;93;95;95;90;93;93;85;95;95;
0;0;0;0;94;95;95;88;90;90;93;95;95;90;93;93;85;95;95;
0;0;0;0;94;95;95;88;90;90;93;95;95;90;93;93;85;95;95;
0;0;0;0;94;95;95;88;90;90;93;95;95;90;93;93;85;95;95;
0;0;0;0;94;95;95;88;90;90;93;95;95;90;93;93;85;95;95;
0;0;0;0;94;95;95;88;90;90;93;95;95;90;93;93;85;95;95;
0;0;0;0;94;95;95;88;90;90;93;95;95;90;93;93;85;95;95;
0;0;0;0;94;95;95;88;90;90;93;95;95;90;93;93;85;95;95;
0;0;0;0;94;95;95;88;90;90;93;95;95;90;93;93;85;95;95;
0;0;0;0;94;95;95;88;90;90;93;95;95;90;93;93;85;95;95;
0;0;0;0;94;95;95;88;90;90;93;95;95;90;93;93;85;95;95;
0;0;0;0;94;95;95;88;90;90;93;95;95;90;93;93;85;95;95;
0;0;0;0;94;95;95;88;90;90;93;95;95;90;93;93;85;95;95;
0;0;0;0;94;95;95;88;90;90;93;95;95;90;93;93;85;95;95;
0;0;0;0;94;95;95;88;90;90;93;95;95;90;93;93;85;95;95;
0;0;0;0;94;95;95;88;90;90;93;95;95;90;93;93;85;95;95;
0;0;0;0;94;95;95;88;90;90;93;95;95;90;93;93;85;95;95;
0;0;0;0;94;95;95;88;90;90;93;95;95;90;93;93;85;95;95;
0;0;0;0;94;95;95;88;90;90;93;95;95;90;93;93;85;95;95;
0;0;0;0;94;95;95;88;90;90;93;95;95;90;93;93;85;95;95;
0;0;0;0;94;95;95;88;90;90;93;95;95;90;93;93;85;95;95;
0;0;0;0;94;95;95;88;90;90;93;95;95;90;93;93;85;95;95;
0;0;0;0;94;95;95;88;90;90;93;95;95;90;93;93;85;95;95;
0;0;0;0;94;95;95;88;90;90;93;95;95;90;93;93;85;95;95;
0;0;0;0;94;95;95;88;90;90;93;95;95;90;93;93;85;95;95;
0;0;0;0;94;95;95;88;90;90;93;95;95;90;93;93;85;95;95;
0;0;0;0;92;94;94;90;92;92;90;93;93;89;92;92;87;94;94;
0;0;0;0;92;94;94;90;92;92;90;93;93;89;92;92;87;94;94;
0;0;0;0;92;94;94;90;92;92;90;93;93;89;92;92;87;94;94;
0;0;0;0;92;94;94;90;92;92;90;93;93;89;92;92;87;94;94;
0;0;0;0;92;94;94;90;92;92;90;93;93;89;92;92;87;94;94;
0;0;0;0;92;94;94;90;92;92;90;93;93;89;92;92;87;94;94;
0;0;0;0;92;94;94;90;92;92;90;93;93;89;92;92;87;94;94;
0;0;0;0;92;94;94;90;92;92;90;93;93;89;92;92;87;94;94;
0;0;0;0;92;94;94;90;92;92;90;93;93;89;92;92;87;94;94;
0;0;0;0;92;94;94;90;92;92;90;93;93;89;92;92;87;94;94;
0;0;0;0;92;94;94;90;92;92;90;93;93;89;92;92;87;94;94;
0;0;0;0;92;94;94;90;92;92;90;93;93;89;92;92;87;94;94;
0;0;0;0;92;94;94;90;92;92;90;93;93;89;92;92;87;94;94;
0;0;0;0;92;94;94;90;92;92;90;93;93;89;92;92;87;94;94;
0;0;0;0;92;94;94;90;92;92;90;93;93;89;92;92;87;94;94;
0;0;0;0;92;94;94;90;92;92;90;93;93;89;92;92;87;94;94;
0;0;0;0;92;94;94;90;92;92;90;93;93;89;92;92;87;94;94;
0;0;0;0;92;94;94;90;92;92;90;93;93;89;92;92;87;94;94;
0;0;0;0;92;94;94;90;92;92;90;93;93;89;92;92;87;94;94;
0;0;0;0;92;94;94;90;92;92;90;93;93;89;92;92;87;94;94;
0;0;0;0;92;94;94;90;92;92;90;93;93;89;92;92;87;94;94;
0;0;0;0;92;94;94;90;92;92;90;93;93;89;92;92;87;94;94;
0;0;0;0;92;94;94;90;92;92;90;93;93;89;92;92;87;94;94;
0;0;0;0;92;94;94;90;92;92;90;93;93;89;92;92;87;94;94;
0;0;0;0;92;94;94;90;92;92;90;93;93;89;92;92;87;94;94;
0;0;0;0;92;94;94;90;92;92;90;93;93;89;92;92;87;94;94;
0;0;0;0;92;94;94;90;92;92;90;93;93;89;92;92;87;94;94;
0;0;0;0;92;94;94;90;92;92;90;93;93;89;92;92;87;94;94;
0;0;0;0;92;94;94;90;92;92;90;93;93;89;92;92;87;94;94;
0;0;0;0;92;94;94;90;92;92;90;93;93;89;92;92;87;94;94;
0;0;0;0;92;94;94;90;92;92;90;93;93;89;92;92;87;94;94;
0;0;0;0;92;94;94;90;92;92;90;93;93;89;92;92;87;94;94;
0;0;0;0;92;94;94;90;92;92;90;93;93;89;92;92;87;94;94;
0;0;0;0;92;94;94;90;92;92;90;93;93;89;92;92;87;94;94;
0;0;0;0;92;94;94;90;92;92;90;93;93;89;92;92;87;94;94;
0;0;0;0;92;94;94;90;92;92;90;93;93;89;92;92;87;94;94;
0;0;0;0;92;94;94;90;92;92;90;93;93;89;92;92;87;94;94;
0;0;0;0;92;94;94;90;92;92;90;93;93;89;92;92;87;94;94;
0;0;0;0;92;94;94;90;92;92;90;93;93;89;92;92;87;94;94;
0;0;0;0;92;94;94;90;92;92;90;93;93;89;92;92;87;94;94;
0;0;0;0;92;94;94;90;92;92;90;93;93;89;92;92;87;94;94;
0;0;0;0;92;94;94;90;92;92;90;93;93;89;92;92;87;94;94;
0;0;0;0;92;94;94;90;92;92;90;93;93;89;92;92;87;94;94;
0;0;0;0;92;94;94;90;92;92;90;93;93;89;92;92;87;94;94;
0;0;0;0;92;94;94;90;92;92;90;93;93;89;92;92;87;94;94;
0;0;0;0;92;94;94;90;92;92;90;93;93;89;92;92;87;94;94;
0;0;0;0;92;94;94;90;92;92;90;93;93;89;92;92;87;94;94;
0;0;0;0;92;94;94;90;92;92;90;93;93;89;92;92;87;94;94;
0;0;0;0;92;94;94;90;92;92;90;93;93;89;92;92;87;94;94;
0;0;0;0;92;94;94;90;92;92;90;93;93;89;92;92;87;94;94;
0;0;0;0;92;94;94;90;92;92;90;93;93;89;92;92;87;94;94;
0;0;0;0;92;94;94;90;92;92;90;93;93;89;92;92;87;94;94;
0;0;0;0;92;94;94;90;92;92;90;93;93;89;92;92;87;94;94;
0;0;0;0;92;94;94;90;92;92;90;93;93;89;92;92;87;94;94;
0;0;0;0;92;94;94;90;92;92;90;93;93;89;92;92;87;94;94;
0;0;0;0;92;94;94;90;92;92;90;93;93;89;92;92;87;94;94;
0;0;0;0;92;94;94;90;92;92;90;93;93;89;92;92;87;94;94;
0;0;0;0;92;94;94;90;92;92;90;93;93;89;92;92;87;94;94;
0;0;0;0;92;94;94;90;92;92;90;93;93;89;92;92;87;94;94;
0;0;0;0;92;94;94;90;92;92;90;93;93;89;92;92;87;94;94;
0;0;0;0;92;94;94;90;92;92;90;93;93;89;92;92;87;94;94;
0;0;0;0;92;94;94;90;92;92;90;93;93;89;92;92;87;94;94;
0;0;0;0;92;94;94;90;92;92;90;93;93;89;92;92;87;94;94;
0;0;0;0;92;94;94;90;92;92;90;93;93;89;92;92;87;94;94;
0;0;0;0;92;94;94;90;92;92;90;93;93;89;92;92;87;94;94;
0;0;0;0;92;94;94;90;92;92;90;93;93;89;92;92;87;94;94;
0;0;0;0;92;94;94;90;92;92;90;93;93;89;92;92;87;94;94;
0;0;0;0;92;94;94;90;92;92;90;93;93;89;92;92;87;94;94;
0;0;0;0;92;94;94;90;92;92;90;93;93;89;92;92;87;94;94;
0;0;0;0;92;94;94;90;92;92;90;93;93;89;92;92;87;94;94;
0;0;0;0;92;94;94;90;92;92;90;93;93;89;92;92;87;94;94;
0;0;0;0;92;94;94;90;92;92;90;93;93;89;92;92;87;94;94;
0;0;0;0;92;94;94;90;92;92;90;93;93;89;92;92;87;94;94;
0;0;0;0;92;94;94;90;92;92;90;93;93;89;92;92;87;94;94;
0;0;0;0;92;94;94;90;92;92;90;93;93;89;92;92;87;94;94;
0;0;0;0;92;94;94;90;92;92;90;93;93;89;92;92;87;94;94;
0;0;0;0;92;94;94;90;92;92;90;93;93;89;92;92;87;94;94;
0;0;0;0;92;94;94;90;92;92;90;93;93;89;92;92;87;94;94;
0;0;0;0;92;94;94;90;92;92;90;93;93;89;92;92;87;94;94;
0;0;0;0;92;94;94;90;92;92;90;93;93;89;92;92;87;94;94;
0;0;0;0;92;94;94;90;92;92;90;93;93;89;92;92;87;94;94;
0;0;0;0;92;94;94;90;92;92;90;93;93;89;92;92;87;94;94;
0;0;0;0;92;94;94;90;92;92;90;93;93;89;92;92;87;94;94;
0;0;0;0;92;94;94;90;92;92;90;93;93;89;92;92;87;94;94;
0;0;0;0;92;94;94;90;92;92;90;93;93;89;92;92;87;94;94;
0;0;0;0;92;94;94;90;92;92;90;93;93;89;92;92;87;94;94;
0;0;0;0;92;94;94;90;92;92;90;93;93;89;92;92;87;94;94;
0;0;0;0;90;92;92;92;93;93;83;87;87;83;87;87;87;91;91;
0;0;0;0;90;92;92;92;93;93;83;87;87;83;87;87;87;91;91;
0;0;0;0;90;92;92;92;93;93;83;87;87;83;87;87;87;91;91;
0;0;0;0;90;92;92;92;93;93;83;87;87;83;87;87;87;91;91;
0;0;0;0;90;92;92;92;93;93;83;87;87;83;87;87;87;91;91;
0;0;0;0;90;92;92;92;93;93;83;87;87;83;87;87;87;91;91;
0;0;0;0;90;92;92;92;93;93;83;87;87;82;86;86;87;90;90;
0;0;0;0;90;92;92;92;93;93;83;87;87;82;86;86;87;90;90;
0;0;0;0;91;92;92;91;92;92;85;88;88;82;87;87;87;90;90;
0;0;0;0;91;92;92;91;92;92;85;88;88;82;87;87;87;90;90;
0;0;0;0;91;92;92;91;92;92;85;88;88;82;87;87;87;90;90;
0;0;0;0;91;92;92;91;92;92;85;88;88;82;87;87;87;90;90;
0;0;0;0;91;92;92;91;92;92;85;88;88;82;87;87;87;90;90;
0;0;0;0;91;92;92;91;92;92;85;88;88;82;87;87;87;90;90;
0;0;0;0;91;92;92;91;92;92;85;88;88;82;87;87;87;90;90;
0;0;0;0;91;92;92;91;92;92;85;88;88;82;87;87;87;90;90;
0;0;0;0;91;92;92;91;92;92;85;88;88;82;87;87;87;90;90;
0;0;0;0;91;92;92;91;92;92;85;88;88;82;87;87;87;90;90;
0;0;0;0;91;92;92;91;92;92;85;88;88;82;87;87;87;90;90;
0;0;0;0;91;92;92;91;92;92;85;88;88;82;87;87;87;90;90;
0;0;0;0;91;92;92;91;92;92;85;88;88;82;87;87;87;90;90;
0;0;0;0;91;92;92;91;92;92;85;88;88;82;87;87;87;90;90;
0;0;0;0;91;92;92;91;92;92;85;88;88;82;87;87;87;90;90;
0;0;0;0;91;92;92;91;92;92;85;88;88;82;87;87;87;90;90;
0;0;0;0;91;92;92;91;92;92;85;88;88;82;87;87;87;90;90;
0;0;0;0;91;92;92;91;92;92;85;88;88;82;87;87;87;90;90;
0;0;0;0;91;92;92;91;92;92;85;88;88;82;87;87;87;90;90;
0;0;0;0;91;92;92;91;92;92;85;88;88;82;87;87;87;90;90;
0;0;0;0;91;92;92;91;92;92;85;88;88;82;87;87;87;90;90;
0;0;0;0;91;92;92;91;92;92;85;88;88;82;87;87;87;90;90;
0;0;0;0;91;92;92;91;92;92;85;88;88;82;87;87;87;90;90;
0;0;0;0;91;92;92;91;92;92;85;88;88;82;87;87;87;90;90;
0;0;0;0;91;92;92;91;92;92;85;88;88;82;87;87;87;90;90;
0;0;0;0;91;92;92;91;92;92;85;88;88;82;87;87;87;90;90;
0;0;0;0;91;92;92;91;92;92;85;88;88;82;87;87;87;90;90;
0;0;0;0;91;92;92;91;92;92;85;88;88;82;87;87;87;90;90;
0;0;0;0;91;92;92;91;92;92;85;88;88;82;87;87;87;90;90;
0;0;0;0;91;92;92;91;92;92;85;88;88;82;87;87;87;90;90;
0;0;0;0;91;92;92;91;92;92;85;88;88;82;87;87;87;90;90;
0;0;0;0;91;92;92;91;92;92;85;88;88;82;87;87;87;90;90;
0;0;0;0;91;92;92;91;92;92;85;88;88;82;87;87;87;90;90;
0;0;0;0;91;92;92;91;92;92;85;88;88;82;87;87;87;90;90;
0;0;0;0;91;92;92;91;92;92;85;88;88;82;87;87;87;90;90;
0;0;0;0;91;92;92;91;92;92;85;88;88;82;87;87;87;90;90;
0;0;0;0;91;92;92;91;92;92;85;88;88;82;87;87;87;90;90;
0;0;0;0;91;92;92;91;92;92;85;88;88;82;87;87;87;90;90;
0;0;0;0;91;92;92;91;92;92;85;88;88;82;87;87;87;90;90;
0;0;0;0;91;92;92;91;92;92;85;88;88;82;87;87;87;90;90;
0;0;0;0;91;92;92;91;92;92;85;88;88;82;87;87;87;90;90;
0;0;0;0;91;92;92;91;92;92;85;88;88;82;87;87;87;90;90;
0;0;0;0;91;92;92;91;92;92;85;88;88;82;87;87;87;90;90;
0;0;0;0;91;92;92;91;92;92;85;88;88;82;87;87;87;90;90;
0;0;0;0;91;92;92;91;92;92;85;88;88;82;87;87;87;90;90;
0;0;0;0;91;92;92;91;92;92;85;88;88;82;87;87;87;90;90;
0;0;0;0;91;92;92;91;92;92;85;88;88;82;87;87;87;90;90;
0;0;0;0;91;92;92;91;92;92;85;88;88;82;87;87;87;90;90;
0;0;0;0;91;92;92;91;92;92;85;88;88;82;87;87;87;90;90;
0;0;0;0;91;92;92;87;89;89;89;92;92;83;87;87;87;90;90;
0;0;0;0;91;92;92;87;89;89;89;92;92;83;87;87;87;90;90;
0;0;0;0;91;92;92;87;89;89;89;92;92;83;87;87;87;90;90;
0;0;0;0;91;92;92;87;89;89;89;92;92;83;87;87;87;90;90;
0;0;0;0;91;92;92;87;89;89;89;92;92;83;87;87;87;90;90;
0;0;0;0;91;92;92;87;89;89;89;92;92;83;87;87;87;90;90;
0;0;0;0;91;92;92;87;89;89;89;92;92;83;87;87;87;90;90;
0;0;0;0;91;92;92;87;89;89;89;92;92;83;87;87;87;90;90;
0;0;0;0;91;92;92;87;89;89;89;92;92;83;87;87;87;90;90;
0;0;0;0;91;92;92;87;89;89;89;92;92;83;87;87;87;90;90;
0;0;0;0;91;92;92;87;89;89;89;92;92;83;87;87;87;90;90;
0;0;0;0;91;92;92;87;89;89;89;92;92;83;87;87;87;90;90;
0;0;0;0;91;92;92;87;89;89;89;92;92;83;87;87;87;90;90;
0;0;0;0;91;92;92;87;89;89;89;92;92;83;87;87;87;90;90;
0;0;0;0;91;92;92;87;89;89;89;92;92;83;87;87;87;90;90;
0;0;0;0;91;92;92;87;89;89;89;92;92;83;87;87;87;90;90;
0;0;0;0;91;92;92;87;89;89;89;92;92;83;87;87;87;90;90;
0;0;0;0;91;92;92;87;89;89;89;92;92;83;87;87;87;90;90;
0;0;0;0;91;92;92;87;89;89;89;92;92;83;87;87;87;90;90;
0;0;0;0;91;92;92;87;89;89;89;92;92;83;87;87;87;90;90;
0;0;0;0;91;92;92;87;89;89;89;92;92;83;87;87;87;90;90;
0;0;0;0;91;92;92;87;89;89;89;92;92;83;87;87;87;90;90;
0;0;0;0;91;92;92;87;89;89;89;92;92;83;87;87;87;90;90;
0;0;0;0;91;92;92;87;89;89;89;92;92;83;87;87;87;90;90;
0;0;0;0;91;92;92;87;89;89;89;92;92;83;87;87;87;90;90;
0;0;0;0;91;92;92;87;89;89;89;92;92;83;87;87;87;90;90;
0;0;0;0;91;92;92;87;89;89;89;92;92;83;87;87;87;90;90;
0;0;0;0;91;92;92;87;89;89;89;92;92;83;87;87;87;90;90;
0;0;0;0;91;92;92;87;89;89;89;92;92;83;87;87;87;90;90;
0;0;0;0;91;92;92;87;89;89;89;92;92;83;87;87;87;90;90;
0;0;0;0;91;92;92;87;89;89;89;92;92;83;87;87;87;90;90;
0;0;0;0;91;92;92;87;89;89;89;92;92;83;87;87;87;90;90;
0;0;0;0;91;92;92;87;89;89;89;92;92;83;87;87;87;90;90;
0;0;0;0;91;92;92;87;89;89;89;92;92;83;87;87;87;90;90;
0;0;0;0;91;92;92;87;89;89;89;92;92;83;87;87;87;90;90;
0;0;0;0;91;92;92;87;89;89;89;92;92;83;87;87;87;90;90;
0;0;0;0;91;92;92;87;89;89;89;92;92;83;87;87;87;90;90;
0;0;0;0;91;92;92;87;89;89;89;92;92;83;87;87;87;90;90;
0;0;0;0;91;92;92;87;89;89;89;92;92;83;87;87;87;90;90;
0;0;0;0;91;92;92;87;89;89;89;92;92;83;87;87;87;90;90;
0;0;0;0;91;92;92;87;89;89;89;92;92;83;87;87;87;90;90;
0;0;0;0;91;92;92;87;89;89;89;92;92;83;87;87;87;90;90;
0;0;0;0;91;92;92;87;89;89;89;92;92;83;87;87;87;90;90;
0;0;0;0;91;92;92;87;89;89;89;92;92;83;87;87;87;90;90;
0;0;0;0;91;92;92;87;89;89;89;92;92;83;87;87;87;90;90;
0;0;0;0;91;92;92;87;89;89;89;92;92;83;87;87;87;90;90;
0;0;0;0;91;92;92;87;89;89;89;92;92;83;87;87;87;90;90;
0;0;0;0;91;92;92;87;89;89;89;92;92;83;87;87;87;90;90;
0;0;0;0;91;92;92;87;89;89;89;92;92;83;87;87;87;90;90;
0;0;0;0;91;92;92;87;89;89;89;92;92;83;87;87;87;90;90;
0;0;0;0;91;92;92;87;89;89;89;92;92;83;87;87;87;90;90;
0;0;0;0;91;92;92;87;89;89;89;92;92;83;87;87;87;90;90;
0;0;0;0;91;92;92;87;89;89;89;92;92;83;87;87;87;90;90;
0;0;0;0;91;92;92;87;89;89;89;92;92;83;87;87;87;90;90;
0;0;0;0;91;92;92;87;89;89;89;92;92;83;87;87;87;90;90;
0;0;0;0;91;92;92;84;87;87;89;92;92;83;87;87;86;90;90;
0;0;0;0;91;92;92;84;87;87;89;92;92;83;87;87;86;90;90;
0;0;0;0;91;92;92;84;87;87;89;92;92;83;87;87;86;90;90;
0;0;0;0;91;92;92;84;87;87;89;91;91;83;87;87;86;90;90;
0;0;0;0;91;92;92;84;87;87;89;91;91;83;87;87;86;90;90;
0;0;0;0;93;93;93;83;86;86;84;87;87;82;86;86;87;89;89;
0;0;0;0;93;93;93;83;86;86;84;87;87;82;86;86;87;89;89;
0;0;0;0;93;93;93;83;86;86;84;87;87;82;86;86;87;89;89;
0;0;0;0;93;93;93;83;86;86;84;87;87;82;86;86;87;89;89;
0;0;0;0;93;93;93;83;86;86;84;87;87;82;86;86;87;89;89;
0;0;0;0;94;94;94;83;87;87;80;84;84;79;83;83;87;89;89;
0;0;0;0;94;94;94;83;87;87;80;84;84;79;83;83;87;89;89;
0;0;0;0;94;94;94;83;87;87;80;84;84;79;83;83;87;89;89;
0;0;0;0;94;94;94;83;87;87;80;84;84;79;83;83;87;89;89;
0;0;0;0;94;94;94;83;87;87;80;84;84;79;83;83;87;89;89;
0;0;0;0;94;94;94;83;87;87;80;84;84;79;83;83;87;89;89;
0;0;0;0;94;94;94;83;87;87;80;84;84;79;83;83;87;89;89;
0;0;0;0;94;94;94;83;87;87;80;84;84;79;83;83;87;89;89;
0;0;0;0;94;94;94;83;87;87;80;84;84;79;83;83;87;89;89;
0;0;0;0;94;94;94;83;87;87;80;84;84;79;83;83;87;89;89;
0;0;0;0;94;94;94;83;87;87;80;84;84;79;83;83;87;89;89;
0;0;0;0;94;94;94;83;87;87;80;84;84;79;83;83;87;89;89;
0;0;0;0;94;94;94;84;87;87;75;81;81;76;81;81;86;89;89;
0;0;0;0;94;94;94;84;87;87;75;81;81;76;81;81;86;89;89;
0;0;0;0;94;94;94;84;87;87;75;81;81;76;81;81;86;89;89;
0;0;0;0;94;94;94;84;87;87;75;81;81;76;81;81;86;89;89;
0;0;0;0;94;94;94;84;87;87;75;81;81;76;81;81;86;89;89;
0;0;0;0;94;94;94;84;87;87;75;81;81;76;81;81;86;89;89;
0;0;0;0;94;94;94;84;87;87;75;81;81;76;81;81;86;89;89;
0;0;0;0;94;94;94;84;87;87;75;81;81;76;81;81;86;89;89;
0;0;0;0;94;94;94;84;87;87;75;81;81;76;81;81;86;89;89;
0;0;0;0;94;94;94;84;87;87;75;81;81;76;81;81;86;89;89;
0;0;0;0;94;94;94;84;87;87;75;81;81;76;81;81;86;89;89;
0;0;0;0;94;94;94;84;87;87;75;81;81;76;81;81;86;89;89;
0;0;0;0;94;94;94;84;87;87;75;81;81;76;81;81;86;89;89;
0;0;0;0;94;94;94;84;87;87;75;81;81;76;81;81;86;89;89;
0;0;0;0;94;94;94;84;87;87;75;81;81;76;81;81;86;89;89;
0;0;0;0;94;95;95;84;87;87;73;79;79;74;79;79;86;89;89;
0;0;0;0;94;95;95;84;87;87;73;79;79;74;79;79;86;89;89;
0;0;0;0;95;95;95;84;87;87;72;78;78;73;78;78;87;89;89;
0;0;0;0;95;95;95;84;87;87;72;78;78;73;78;78;87;89;89;
0;0;0;0;95;95;95;84;87;87;72;78;78;73;78;78;87;89;89;
0;0;0;0;95;95;95;84;87;87;72;78;78;73;78;78;87;89;89;
0;0;0;0;95;95;95;84;87;87;72;78;78;73;78;78;87;89;89;
0;0;0;0;95;95;95;84;87;87;72;78;78;73;78;78;87;89;89;
0;0;0;0;95;95;95;84;87;87;72;78;78;73;78;78;87;89;89;
0;0;0;0;95;95;95;84;87;87;72;78;78;73;78;78;87;89;89;
0;0;0;0;95;95;95;84;87;87;72;78;78;73;78;78;87;89;89;
0;0;0;0;95;95;95;84;87;87;72;78;78;73;78;78;87;89;89;
0;0;0;0;95;95;95;84;87;87;72;78;78;73;78;78;87;89;89;
0;0;0;0;95;95;95;84;87;87;72;78;78;73;78;78;87;89;89;
0;0;0;0;95;95;95;84;87;87;72;78;78;73;78;78;87;89;89;
0;0;0;0;95;95;95;84;87;87;72;78;78;73;78;78;87;89;89;
0;0;0;0;95;95;95;84;87;87;72;78;78;73;78;78;87;89;89;
0;0;0;0;95;95;95;84;87;87;72;78;78;73;78;78;87;89;89;
0;0;0;0;95;95;95;84;87;87;72;78;78;73;78;78;87;89;89;
0;0;0;0;95;95;95;84;87;87;72;78;78;73;78;78;87;89;89;
0;0;0;0;95;95;95;84;87;87;72;78;78;73;78;78;87;89;89;
0;0;0;0;95;95;95;84;87;87;72;78;78;73;78;78;87;89;89;
0;0;0;0;95;95;95;84;87;87;72;78;78;73;78;78;87;89;89;
0;0;0;0;95;95;95;84;87;87;72;78;78;73;78;78;87;89;89;
0;0;0;0;95;95;95;84;87;87;72;78;78;73;78;78;87;89;89;
0;0;0;0;95;95;95;84;87;87;72;78;78;73;78;78;87;89;89;
0;0;0;0;95;95;95;84;87;87;72;78;78;73;78;78;87;89;89;
0;0;0;0;95;95;95;84;87;87;72;78;78;73;78;78;87;89;89;
0;0;0;0;95;95;95;84;87;87;72;78;78;73;78;78;87;89;89;
0;0;0;0;95;95;95;84;87;87;72;78;78;73;78;78;87;89;89;
0;0;0;0;95;95;95;84;87;87;72;78;78;73;78;78;87;89;89;
0;0;0;0;95;95;95;84;87;87;72;78;78;73;78;78;87;89;89;
0;0;0;0;95;95;95;84;87;87;72;78;78;73;78;78;87;89;89;
0;0;0;0;95;95;95;84;87;87;72;78;78;73;78;78;87;89;89;
0;0;0;0;95;95;95;84;87;87;72;78;78;73;78;78;87;89;89;
0;0;0;0;95;95;95;84;87;87;72;78;78;73;78;78;87;89;89;
0;0;0;0;95;95;95;84;87;87;72;78;78;73;78;78;87;89;89;
0;0;0;0;95;95;95;84;87;87;72;78;78;73;78;78;87;89;89;
0;0;0;0;95;95;95;84;87;87;72;78;78;73;78;78;87;89;89;
0;0;0;0;95;95;95;84;87;87;72;78;78;73;78;78;87;89;89;
0;0;0;0;95;95;95;84;87;87;72;78;78;73;78;78;87;89;89;
0;0;0;0;95;95;95;84;87;87;72;78;78;73;78;78;87;89;89;
0;0;0;0;95;95;95;84;87;87;72;78;78;73;78;78;87;89;89;
0;0;0;0;95;95;95;84;87;87;72;78;78;73;78;78;87;89;89;
0;0;0;0;95;95;95;84;87;87;72;78;78;73;78;78;87;89;89;
0;0;0;0;95;95;95;84;87;87;72;78;78;73;78;78;87;89;89;
0;0;0;0;95;95;95;84;87;87;72;78;78;73;78;78;87;89;89;
0;0;0;0;95;95;95;84;87;87;72;78;78;73;78;78;87;89;89;
0;0;0;0;95;95;95;84;87;87;72;78;78;73;78;78;87;89;89;
0;0;0;0;95;95;95;84;87;87;72;78;78;73;78;78;87;89;89;
0;0;0;0;95;95;95;84;87;87;72;78;78;73;78;78;87;89;89;
0;0;0;0;95;95;95;84;87;87;72;78;78;73;78;78;87;89;89;
0;0;0;0;95;95;95;84;87;87;72;78;78;73;78;78;87;89;89;
0;0;0;0;95;95;95;84;87;87;72;78;78;73;78;78;87;89;89;
0;0;0;0;95;95;95;84;87;87;72;78;78;73;78;78;87;89;89;
0;0;0;0;95;95;95;84;87;87;72;78;78;73;78;78;87;89;89;
0;0;0;0;95;95;95;84;87;87;72;78;78;73;78;78;87;89;89;
0;0;0;0;95;95;95;84;87;87;72;78;78;73;78;78;87;89;89;
0;0;0;0;95;95;95;84;87;87;72;78;78;73;78;78;87;89;89;
0;0;0;0;95;95;95;84;87;87;72;78;78;73;78;78;87;89;89;
0;0;0;0;95;95;95;84;87;87;72;78;78;73;78;78;87;89;89;
0;0;0;0;95;95;95;84;87;87;72;78;78;73;78;78;87;89;89;
0;0;0;0;95;95;95;84;87;87;72;78;78;73;78;78;87;89;89;
0;0;0;0;95;95;95;84;87;87;72;78;78;73;78;78;87;89;89;
0;0;0;0;95;95;95;84;87;87;72;78;78;73;78;78;87;89;89;
0;0;0;0;95;95;95;84;87;87;72;78;78;73;78;78;87;89;89;
0;0;0;0;95;95;95;84;87;87;72;78;78;73;78;78;87;89;89;
0;0;0;0;95;95;95;84;87;87;72;78;78;73;78;78;87;89;89;
0;0;0;0;95;95;95;84;87;87;72;78;78;73;78;78;87;89;89;
0;0;0;0;95;95;95;84;87;87;72;78;78;73;78;78;87;89;89;
0;0;0;0;95;95;95;84;87;87;72;78;78;73;78;78;87;89;89;
0;0;0;0;95;95;95;84;87;87;72;78;78;73;78;78;87;89;89;
0;0;0;0;95;95;95;84;87;87;72;78;78;73;78;78;87;89;89;
0;0;0;0;95;95;95;84;87;87;72;78;78;73;78;78;87;89;89;
0;0;0;0;95;95;95;84;87;87;72;78;78;73;78;78;87;89;89;
0;0;0;0;95;95;95;84;87;87;72;78;78;73;78;78;87;89;89;
0;0;0;0;95;95;95;84;87;87;72;78;78;73;78;78;87;89;89;
0;0;0;0;95;95;95;84;87;87;72;78;78;73;78;78;87;89;89;
0;0;0;0;95;95;95;84;87;87;72;78;78;73;78;78;87;89;89;
0;0;0;0;95;95;95;84;87;87;72;78;78;73;78;78;87;89;89;
0;0;0;0;95;95;95;84;87;87;72;78;78;73;78;78;87;89;89;
0;0;0;0;95;95;95;84;87;87;72;78;78;73;78;78;87;89;89;
0;0;0;0;95;95;95;84;87;87;72;78;78;73;78;78;87;89;89;
0;0;0;0;95;95;95;84;87;87;72;78;78;73;78;78;87;89;89;
0;0;0;0;95;95;95;84;87;87;72;78;78;73;78;78;87;89;89;
0;0;0;0;94;97;97;83;86;86;73;78;78;72;77;77;87;89;89;
0;0;0;0;94;97;97;83;86;86;73;78;78;72;77;77;87;89;89;
0;0;0;0;94;97;97;83;86;86;73;78;78;72;77;77;87;89;89;
0;0;0;0;94;97;97;83;86;86;73;78;78;72;77;77;87;89;89;
0;0;0;0;94;97;97;83;86;86;73;78;78;72;77;77;87;89;89;
0;0;0;0;94;97;97;83;86;86;73;78;78;72;77;77;87;89;89;
0;0;0;0;94;97;97;83;86;86;73;78;78;72;77;77;87;89;89;
0;0;0;0;94;97;97;83;86;86;73;78;78;72;77;77;87;89;89;
0;0;0;0;94;97;97;83;86;86;73;78;78;72;77;77;87;89;89;
0;0;0;0;94;97;97;83;86;86;73;78;78;72;77;77;87;89;89;
0;0;0;0;94;97;97;83;86;86;73;78;78;72;77;77;87;89;89;
0;0;0;0;94;97;97;83;86;86;73;78;78;72;77;77;87;89;89;
0;0;0;0;94;97;97;83;86;86;73;78;78;72;77;77;87;89;89;
0;0;0;0;94;97;97;83;86;86;73;78;78;72;77;77;87;89;89;
0;0;0;0;94;97;97;83;86;86;73;78;78;72;77;77;87;89;89;
0;0;0;0;94;97;97;83;86;86;73;78;78;72;77;77;87;89;89;
0;0;0;0;94;97;97;83;86;86;73;78;78;72;77;77;87;89;89;
0;0;0;0;94;97;97;83;86;86;73;78;78;72;77;77;87;89;89;
0;0;0;0;94;97;97;83;86;86;73;78;78;72;77;77;87;89;89;
0;0;0;0;94;97;97;83;86;86;73;78;78;72;77;77;87;89;89;
0;0;0;0;94;97;97;83;86;86;73;78;78;72;77;77;87;89;89;
0;0;0;0;94;97;97;83;86;86;73;78;78;72;77;77;87;89;89;
0;0;0;0;94;97;97;83;86;86;73;78;78;72;77;77;87;89;89;
0;0;0;0;94;97;97;83;86;86;73;78;78;72;77;77;87;89;89;
0;0;0;0;94;97;97;83;86;86;73;78;78;72;77;77;87;89;89;
0;0;0;0;94;97;97;83;86;86;73;78;78;72;77;77;87;89;89;
0;0;0;0;94;97;97;83;86;86;73;78;78;72;77;77;87;89;89;
0;0;0;0;94;97;97;83;86;86;73;78;78;72;77;77;87;89;89;
0;0;0;0;94;97;97;83;86;86;73;78;78;72;77;77;87;89;89;
0;0;0;0;94;97;97;83;86;86;73;78;78;72;77;77;87;89;89;
0;0;0;0;94;97;97;83;86;86;73;78;78;72;77;77;87;89;89;
0;0;0;0;94;97;97;83;86;86;73;78;78;72;77;77;87;89;89;
0;0;0;0;94;97;97;83;86;86;73;78;78;72;77;77;87;89;89;
0;0;0;0;94;97;97;83;86;86;73;78;78;72;77;77;87;89;89;
0;0;0;0;94;97;97;83;86;86;73;78;78;72;77;77;87;89;89;
0;0;0;0;94;97;97;83;86;86;73;78;78;72;77;77;87;89;89;
0;0;0;0;94;97;97;83;86;86;73;78;78;72;77;77;87;89;89;
0;0;0;0;94;97;97;83;86;86;73;78;78;72;77;77;87;89;89;
0;0;0;0;94;97;97;83;86;86;73;78;78;72;77;77;87;89;89;
0;0;0;0;94;97;97;83;86;86;73;78;78;72;77;77;87;89;89;
0;0;0;0;94;97;97;83;86;86;73;78;78;72;77;77;87;89;89;
0;0;0;0;94;97;97;83;86;86;73;78;78;72;77;77;87;89;89;
0;0;0;0;94;97;97;83;86;86;73;78;78;72;77;77;87;89;89;
0;0;0;0;94;97;97;83;86;86;73;78;78;72;77;77;87;89;89;
0;0;0;0;94;97;97;83;86;86;73;78;78;72;77;77;87;89;89;
0;0;0;0;94;97;97;83;86;86;73;78;78;72;77;77;87;89;89;
0;0;0;0;94;97;97;83;86;86;73;78;78;72;77;77;87;89;89;
0;0;0;0;94;97;97;83;86;86;73;78;78;72;77;77;87;89;89;
0;0;0;0;94;97;97;83;86;86;73;78;78;72;77;77;87;89;89;
0;0;0;0;94;97;97;83;86;86;73;78;78;72;77;77;87;89;89;
0;0;0;0;94;97;97;83;86;86;73;78;78;72;77;77;87;89;89;
0;0;0;0;94;97;97;83;86;86;73;78;78;72;77;77;87;89;89;
0;0;0;0;94;97;97;83;86;86;73;78;78;72;77;77;87;89;89;
0;0;0;0;94;97;97;83;86;86;73;78;78;72;77;77;87;89;89;
0;0;0;0;94;97;97;83;86;86;73;78;78;72;77;77;87;89;89;
0;0;0;0;94;97;97;83;86;86;73;78;78;72;77;77;87;89;89;
0;0;0;0;94;97;97;83;86;86;73;78;78;72;77;77;87;89;89;
0;0;0;0;94;97;97;83;86;86;73;78;78;72;77;77;87;89;89;
0;0;0;0;94;97;97;83;86;86;73;78;78;72;77;77;87;89;89;
0;0;0;0;94;97;97;83;86;86;73;78;78;72;77;77;87;89;89;
0;0;0;0;94;97;97;83;86;86;73;78;78;72;77;77;87;89;89;
0;0;0;0;94;97;97;83;86;86;73;78;78;72;77;77;87;89;89;
0;0;0;0;94;97;97;83;86;86;73;78;78;72;77;77;87;89;89;
0;0;0;0;94;97;97;83;86;86;73;78;78;72;77;77;87;89;89;
0;0;0;0;94;97;97;83;86;86;73;78;78;72;77;77;87;89;89;
0;0;0;0;94;97;97;83;86;86;73;78;78;72;77;77;87;89;89;
0;0;0;0;94;97;97;83;86;86;73;78;78;72;77;77;87;89;89;
0;0;0;0;94;97;97;83;86;86;73;78;78;72;77;77;87;89;89;
0;0;0;0;94;97;97;83;86;86;73;78;78;72;77;77;87;89;89;
0;0;0;0;94;97;97;83;86;86;73;78;78;72;77;77;87;89;89;
0;0;0;0;94;97;97;83;86;86;73;78;78;72;77;77;87;89;89;
0;0;0;0;94;97;97;83;86;86;73;78;78;72;77;77;87;89;89;
0;0;0;0;94;97;97;83;86;86;73;78;78;72;77;77;87;89;89;
0;0;0;0;94;97;97;83;86;86;73;78;78;72;77;77;87;89;89;
0;0;0;0;94;97;97;83;86;86;73;78;78;72;77;77;87;89;89;
0;0;0;0;94;97;97;83;86;86;73;78;78;72;77;77;87;89;89;
0;0;0;0;94;97;97;83;86;86;73;78;78;72;77;77;87;89;89;
0;0;0;0;94;97;97;83;86;86;73;78;78;72;77;77;87;89;89;
0;0;0;0;94;97;97;83;86;86;73;78;78;72;77;77;87;89;89;
0;0;0;0;94;97;97;83;86;86;73;78;78;72;77;77;87;89;89;
0;0;0;0;94;97;97;83;86;86;73;78;78;72;77;77;87;89;89;
0;0;0;0;94;97;97;83;86;86;73;78;78;72;77;77;87;89;89;
0;0;0;0;94;97;97;83;86;86;73;78;78;72;77;77;87;89;89;
0;0;0;0;94;97;97;83;86;86;73;78;78;72;77;77;87;89;89;
0;0;0;0;94;97;97;83;86;86;73;78;78;72;77;77;87;89;89;
0;0;0;0;94;97;97;83;86;86;73;78;78;72;77;77;87;89;89;
0;0;0;0;94;97;97;83;86;86;73;78;78;72;77;77;87;89;89;
0;0;0;0;94;97;97;83;86;86;73;78;78;72;77;77;87;89;89;
0;0;0;0;94;97;97;83;86;86;73;78;78;72;77;77;87;89;89;
0;0;0;0;94;97;97;83;86;86;73;78;78;72;77;77;87;89;89;
0;0;0;0;94;97;97;83;86;86;73;78;78;72;77;77;87;89;89;
0;0;0;0;94;97;97;83;86;86;73;78;78;72;77;77;87;89;89;
0;0;0;0;94;97;97;83;86;86;73;78;78;72;77;77;87;89;89;
0;0;0;0;94;97;97;83;86;86;73;78;78;72;77;77;87;89;89;
0;0;0;0;94;97;97;83;86;86;73;78;78;72;77;77;87;89;89;
0;0;0;0;94;97;97;83;86;86;73;78;78;72;77;77;87;89;89;
0;0;0;0;94;97;97;83;86;86;73;78;78;72;77;77;87;89;89;
0;0;0;0;94;97;97;83;86;86;73;78;78;72;77;77;87;89;89;
0;0;0;0;94;97;97;83;86;86;73;78;78;72;77;77;87;89;89;
0;0;0;0;94;97;97;83;86;86;73;78;78;72;77;77;87;89;89;
0;0;0;0;94;97;97;83;86;86;73;78;78;72;77;77;87;89;89;
0;0;0;0;94;97;97;83;86;86;73;78;78;72;77;77;87;89;89;
0;0;0;0;94;97;97;83;86;86;73;78;78;72;77;77;87;89;89;
0;0;0;0;94;97;97;83;86;86;73;78;78;72;77;77;87;89;89;
0;0;0;0;94;97;97;83;86;86;73;78;78;72;77;77;87;89;89;
0;0;0;0;92;96;96;67;72;72;84;86;86;80;84;84;86;89;89;
0;0;0;0;92;96;96;67;72;72;84;86;86;80;84;84;86;89;89;
0;0;0;0;92;96;96;67;72;72;84;86;86;80;84;84;86;89;89;
0;0;0;0;92;96;96;67;72;72;84;86;86;80;84;84;86;89;89;
0;0;0;0;92;96;96;67;72;72;84;86;86;80;84;84;86;89;89;
0;0;0;0;92;96;96;67;72;72;84;86;86;80;84;84;86;89;89;
0;0;0;0;92;96;96;67;72;72;84;86;86;80;84;84;86;89;89;
0;0;0;0;92;96;96;67;72;72;84;86;86;80;84;84;86;89;89;
0;0;0;0;92;96;96;67;72;72;84;86;86;80;84;84;86;89;89;
0;0;0;0;92;96;96;67;72;72;84;86;86;80;84;84;86;89;89;
0;0;0;0;92;96;96;67;72;72;84;86;86;80;84;84;86;89;89;
0;0;0;0;92;96;96;67;72;72;84;86;86;80;84;84;86;89;89;
0;0;0;0;92;96;96;67;72;72;84;86;86;80;84;84;86;89;89;
0;0;0;0;92;96;96;67;72;72;84;86;86;80;84;84;86;89;89;
0;0;0;0;92;96;96;67;72;72;84;86;86;80;84;84;86;89;89;
0;0;0;0;92;96;96;67;72;72;84;86;86;80;84;84;86;89;89;
0;0;0;0;92;96;96;67;72;72;84;86;86;80;84;84;86;89;89;
0;0;0;0;92;96;96;67;72;72;84;86;86;80;84;84;86;89;89;
0;0;0;0;92;96;96;67;72;72;84;86;86;80;84;84;86;89;89;
0;0;0;0;92;96;96;67;72;72;84;86;86;80;84;84;86;89;89;
0;0;0;0;92;96;96;65;70;70;85;87;87;83;87;87;87;89;89;
0;0;0;0;92;96;96;65;70;70;85;87;87;83;87;87;87;89;89;
0;0;0;0;92;96;96;65;71;71;85;87;87;84;87;87;87;89;89;
0;0;0;0;92;96;96;65;71;71;85;87;87;84;87;87;87;89;89;
0;0;0;0;92;96;96;66;72;72;85;87;87;84;87;87;88;90;90;
0;0;0;0;92;96;96;66;72;72;85;87;87;84;87;87;88;90;90;
0;0;0;0;92;96;96;66;72;72;85;87;87;84;87;87;88;90;90;
0;0;0;0;92;96;96;66;72;72;85;87;87;84;87;87;88;90;90;
0;0;0;0;92;96;96;66;72;72;85;87;87;84;87;87;88;90;90;
0;0;0;0;92;96;96;66;72;72;85;87;87;84;87;87;88;90;90;
0;0;0;0;92;96;96;66;72;72;85;87;87;84;87;87;88;90;90;
0;0;0;0;92;96;96;66;72;72;85;87;87;84;87;87;88;90;90;
0;0;0;0;92;96;96;66;72;72;85;87;87;84;87;87;88;90;90;
0;0;0;0;92;96;96;70;75;75;81;84;84;84;87;87;88;90;90;
0;0;0;0;92;96;96;70;75;75;81;84;84;84;87;87;88;90;90;
0;0;0;0;92;96;96;70;75;75;81;84;84;84;87;87;88;90;90;
0;0;0;0;92;96;96;70;75;75;81;84;84;84;87;87;88;90;90;
0;0;0;0;92;96;96;70;75;75;81;84;84;84;87;87;88;90;90;
0;0;0;0;92;96;96;70;75;75;81;84;84;84;87;87;88;90;90;
0;0;0;0;92;96;96;70;75;75;81;84;84;84;87;87;88;90;90;
0;0;0;0;92;96;96;70;75;75;81;84;84;84;87;87;88;90;90;
0;0;0;0;92;96;96;70;75;75;81;84;84;84;87;87;88;90;90;
0;0;0;0;92;96;96;70;75;75;81;84;84;84;87;87;88;90;90;
0;0;0;0;92;96;96;70;75;75;81;84;84;84;87;87;88;90;90;
0;0;0;0;92;96;96;70;75;75;81;84;84;84;87;87;88;90;90;
0;0;0;0;92;96;96;78;81;81;77;80;80;80;84;84;88;90;90;
0;0;0;0;92;96;96;78;81;81;77;80;80;80;84;84;88;90;90;
0;0;0;0;92;96;96;78;81;81;77;80;80;80;84;84;88;90;90;
0;0;0;0;92;96;96;78;81;81;77;80;80;80;84;84;88;90;90;
0;0;0;0;92;96;96;78;81;81;77;80;80;80;84;84;88;90;90;
0;0;0;0;92;96;96;78;81;81;77;80;80;80;84;84;88;90;90;
0;0;0;0;92;96;96;78;81;81;77;80;80;80;84;84;88;90;90;
0;0;0;0;92;96;96;78;81;81;77;80;80;80;84;84;88;90;90;
0;0;0;0;92;96;96;78;81;81;77;80;80;80;84;84;88;90;90;
0;0;0;0;92;96;96;78;81;81;77;80;80;80;84;84;88;90;90;
0;0;0;0;92;96;96;78;81;81;77;80;80;80;84;84;88;90;90;
0;0;0;0;92;96;96;78;81;81;77;80;80;80;84;84;88;90;90;
0;0;0;0;92;96;96;78;81;81;77;80;80;80;84;84;88;90;90;
0;0;0;0;92;96;96;78;81;81;77;80;80;80;84;84;88;90;90;
0;0;0;0;92;96;96;78;81;81;77;80;80;80;84;84;88;90;90;
0;0;0;0;92;96;96;78;81;81;77;80;80;80;84;84;88;90;90;
0;0;0;0;92;96;96;78;81;81;77;80;80;80;84;84;88;90;90;
0;0;0;0;92;96;96;78;81;81;77;80;80;80;84;84;88;90;90;
0;0;0;0;92;96;96;78;81;81;77;80;80;80;84;84;88;90;90;
0;0;0;0;92;96;96;78;81;81;77;80;80;80;84;84;88;90;90;
0;0;0;0;92;96;96;78;81;81;77;80;80;80;84;84;88;90;90;
0;0;0;0;92;96;96;78;81;81;77;80;80;80;84;84;88;90;90;
0;0;0;0;92;96;96;78;81;81;77;80;80;80;84;84;88;90;90;
0;0;0;0;92;96;96;78;81;81;77;80;80;80;84;84;88;90;90;
0;0;0;0;92;96;96;78;81;81;77;80;80;80;84;84;88;90;90;
0;0;0;0;92;96;96;78;81;81;77;80;80;80;84;84;88;90;90;
0;0;0;0;92;96;96;78;81;81;77;80;80;80;84;84;88;90;90;
0;0;0;0;92;96;96;78;81;81;77;80;80;80;84;84;88;90;90;
0;0;0;0;92;96;96;78;81;81;77;80;80;80;84;84;88;90;90;
0;0;0;0;92;96;96;78;81;81;77;80;80;80;84;84;88;90;90;
0;0;0;0;92;96;96;78;81;81;77;80;80;80;84;84;88;90;90;
0;0;0;0;92;96;96;78;81;81;77;80;80;80;84;84;88;90;90;
0;0;0;0;92;96;96;78;81;81;77;80;80;80;84;84;88;90;90;
0;0;0;0;92;96;96;78;81;81;77;80;80;80;84;84;88;90;90;
0;0;0;0;92;96;96;78;81;81;77;80;80;80;84;84;88;90;90;
0;0;0;0;92;96;96;78;81;81;77;80;80;80;84;84;88;90;90;
0;0;0;0;92;96;96;83;85;85;76;80;80;77;81;81;87;89;89;
0;0;0;0;92;96;96;83;85;85;76;80;80;77;81;81;87;89;89;
0;0;0;0;92;96;96;83;85;85;76;80;80;77;81;81;87;89;89;
0;0;0;0;92;96;96;83;85;85;76;80;80;77;81;81;87;89;89;
0;0;0;0;92;96;96;83;85;85;76;80;80;77;81;81;87;89;89;
0;0;0;0;92;96;96;83;85;85;76;80;80;77;81;81;87;89;89;
0;0;0;0;92;96;96;83;85;85;76;80;80;77;81;81;87;89;89;
0;0;0;0;92;96;96;83;85;85;76;80;80;77;81;81;87;89;89;
0;0;0;0;92;96;96;83;85;85;76;80;80;77;81;81;87;89;89;
0;0;0;0;91;96;96;84;86;86;77;81;81;77;81;81;86;88;88;
0;0;0;0;91;96;96;84;86;86;77;81;81;77;81;81;86;88;88;
0;0;0;0;91;96;96;84;86;86;77;81;81;77;81;81;86;88;88;
0;0;0;0;91;96;96;86;88;88;78;82;82;78;82;82;84;86;86;
0;0;0;0;91;96;96;86;88;88;78;82;82;78;82;82;84;86;86;
0;0;0;0;91;96;96;86;88;88;78;82;82;78;82;82;84;86;86;
0;0;0;0;91;96;96;86;88;88;78;82;82;78;82;82;84;86;86;
0;0;0;0;91;96;96;86;88;88;78;82;82;78;82;82;84;86;86;
0;0;0;0;92;96;96;88;90;90;82;85;85;79;83;83;82;85;85;
0;0;0;0;92;96;96;88;90;90;82;85;85;79;83;83;82;85;85;
0;0;0;0;92;96;96;88;90;90;82;85;85;79;83;83;82;85;85;
0;0;0;0;92;96;96;88;90;90;82;85;85;79;83;83;82;85;85;
0;0;0;0;92;96;96;88;90;90;82;85;85;79;83;83;82;85;85;
0;0;0;0;92;96;96;88;90;90;82;85;85;79;83;83;82;85;85;
0;0;0;0;92;96;96;88;90;90;82;85;85;79;83;83;82;85;85;
0;0;0;0;92;96;96;88;90;90;82;85;85;79;83;83;82;85;85;
0;0;0;0;92;96;96;88;90;90;82;85;85;79;83;83;82;85;85;
0;0;0;0;92;96;96;88;90;90;82;85;85;79;83;83;82;85;85;
0;0;0;0;92;96;96;88;90;90;82;85;85;79;83;83;82;85;85;
0;0;0;0;92;96;96;88;90;90;82;85;85;79;83;83;82;85;85;
0;0;0;0;92;96;96;88;90;90;82;85;85;79;83;83;82;85;85;
0;0;0;0;92;96;96;88;90;90;82;85;85;79;83;83;82;85;85;
0;0;0;0;92;96;96;88;90;90;82;85;85;79;83;83;82;85;85;
0;0;0;0;92;96;96;88;90;90;82;85;85;79;83;83;82;85;85;
0;0;0;0;92;96;96;88;90;90;82;85;85;79;83;83;82;85;85;
0;0;0;0;92;96;96;88;90;90;82;85;85;79;83;83;82;85;85;
0;0;0;0;92;96;96;88;90;90;82;85;85;79;83;83;82;85;85;
0;0;0;0;92;96;96;88;90;90;82;85;85;79;83;83;82;85;85;
0;0;0;0;92;96;96;88;90;90;82;85;85;79;83;83;82;85;85;
0;0;0;0;92;96;96;88;90;90;82;85;85;79;83;83;82;85;85;
0;0;0;0;92;96;96;88;90;90;82;85;85;79;83;83;82;85;85;
0;0;0;0;92;96;96;88;90;90;82;85;85;79;83;83;82;85;85;
0;0;0;0;92;96;96;88;90;90;82;85;85;79;83;83;82;85;85;
0;0;0;0;92;96;96;88;90;90;82;85;85;79;83;83;82;85;85;
0;0;0;0;92;96;96;88;90;90;82;85;85;79;83;83;82;85;85;
0;0;0;0;92;96;96;88;90;90;82;85;85;79;83;83;82;85;85;
0;0;0;0;92;96;96;88;90;90;82;85;85;79;83;83;82;85;85;
0;0;0;0;92;96;96;88;90;90;82;85;85;79;83;83;82;85;85;
0;0;0;0;92;96;96;88;90;90;82;85;85;79;83;83;82;85;85;
0;0;0;0;92;96;96;88;90;90;82;85;85;79;83;83;82;85;85;
0;0;0;0;92;96;96;88;90;90;82;85;85;79;83;83;82;85;85;
0;0;0;0;92;96;96;88;90;90;82;85;85;79;83;83;82;85;85;
0;0;0;0;92;96;96;90;91;91;86;89;89;80;84;84;80;84;84;
0;0;0;0;92;96;96;90;91;91;86;89;89;80;84;84;80;84;84;
0;0;0;0;92;96;96;90;91;91;86;89;89;80;84;84;80;84;84;
0;0;0;0;92;96;96;90;91;91;86;89;89;80;84;84;80;84;84;
0;0;0;0;92;96;96;90;91;91;86;89;89;80;84;84;80;84;84;
0;0;0;0;92;96;96;90;91;91;86;89;89;80;84;84;80;84;84;
0;0;0;0;92;96;96;90;91;91;86;89;89;80;84;84;80;84;84;
0;0;0;0;92;96;96;90;91;91;86;89;89;80;84;84;80;84;84;
0;0;0;0;92;96;96;90;91;91;86;89;89;80;84;84;80;84;84;
0;0;0;0;92;96;96;90;91;91;86;89;89;80;84;84;80;84;84;
0;0;0;0;92;96;96;90;91;91;86;89;89;80;84;84;80;84;84;
0;0;0;0;92;96;96;90;91;91;86;89;89;80;84;84;80;84;84;
0;0;0;0;92;96;96;90;91;91;86;89;89;80;84;84;80;84;84;
0;0;0;0;92;96;96;90;91;91;86;89;89;80;84;84;80;84;84;
0;0;0;0;92;96;96;90;91;91;86;89;89;80;84;84;80;84;84;
0;0;0;0;92;96;96;90;91;91;86;89;89;80;84;84;80;84;84;
0;0;0;0;92;96;96;90;91;91;86;89;89;80;84;84;80;84;84;
0;0;0;0;92;96;96;90;91;91;86;89;89;80;84;84;80;84;84;
0;0;0;0;92;96;96;90;91;91;86;89;89;80;84;84;80;84;84;
0;0;0;0;92;96;96;90;91;91;86;89;89;80;84;84;80;84;84;
0;0;0;0;92;96;96;90;91;91;86;89;89;80;84;84;80;84;84;
0;0;0;0;92;96;96;90;91;91;86;89;89;80;84;84;80;84;84;
0;0;0;0;92;96;96;90;91;91;86;89;89;80;84;84;80;84;84;
0;0;0;0;92;96;96;90;91;91;86;89;89;80;84;84;80;84;84;
0;0;0;0;92;96;96;90;91;91;86;89;89;80;84;84;80;84;84;
0;0;0;0;92;96;96;90;91;91;86;89;89;80;84;84;80;84;84;
0;0;0;0;92;96;96;90;91;91;86;89;89;80;84;84;80;84;84;
0;0;0;0;92;96;96;90;91;91;86;89;89;80;84;84;80;84;84;
0;0;0;0;92;96;96;90;91;91;86;89;89;80;84;84;80;84;84;
0;0;0;0;92;96;96;90;91;91;86;89;89;80;84;84;80;84;84;
0;0;0;0;92;96;96;90;91;91;86;89;89;80;84;84;80;84;84;
0;0;0;0;92;96;96;90;91;91;86;89;89;80;84;84;80;84;84;
0;0;0;0;92;96;96;90;91;91;86;89;89;80;84;84;80;84;84;
0;0;0;0;92;96;96;90;91;91;86;89;89;80;84;84;80;84;84;
0;0;0;0;92;96;96;90;91;91;86;89;89;80;84;84;80;84;84;
0;0;0;0;92;96;96;90;91;91;86;89;89;80;84;84;80;84;84;
0;0;0;0;92;96;96;90;91;91;86;89;89;80;84;84;80;84;84;
0;0;0;0;92;96;96;90;91;91;86;89;89;80;84;84;80;84;84;
0;0;0;0;92;96;96;90;91;91;86;89;89;80;84;84;80;84;84;
0;0;0;0;92;96;96;90;91;91;86;89;89;80;84;84;80;84;84;
0;0;0;0;92;96;96;90;91;91;86;89;89;80;84;84;80;84;84;
0;0;0;0;92;96;96;90;91;91;86;89;89;80;84;84;80;84;84;
0;0;0;0;92;96;96;90;91;91;86;89;89;80;84;84;80;84;84;
0;0;0;0;92;96;96;90;91;91;86;89;89;80;84;84;80;84;84;
0;0;0;0;92;96;96;90;91;91;86;89;89;80;84;84;80;84;84;
0;0;0;0;92;96;96;90;91;91;86;89;89;80;84;84;80;84;84;
0;0;0;0;92;96;96;90;91;91;86;89;89;80;84;84;80;84;84;
0;0;0;0;92;96;96;90;91;91;86;89;89;80;84;84;80;84;84;
0;0;0;0;92;96;96;90;91;91;86;89;89;80;84;84;80;84;84;
0;0;0;0;92;96;96;90;91;91;86;89;89;80;84;84;80;84;84;
0;0;0;0;92;96;96;90;91;91;86;89;89;80;84;84;80;84;84;
0;0;0;0;92;96;96;90;91;91;86;89;89;80;84;84;80;84;84;
0;0;0;0;92;96;96;90;91;91;86;89;89;80;84;84;80;84;84;
0;0;0;0;92;96;96;90;91;91;86;89;89;80;84;84;80;84;84;
0;0;0;0;92;96;96;90;91;91;86;89;89;80;84;84;80;84;84;
0;0;0;0;92;96;96;90;91;91;86;89;89;80;84;84;80;84;84;
0;0;0;0;92;96;96;90;91;91;86;89;89;80;84;84;80;84;84;
0;0;0;0;92;96;96;90;91;91;86;89;89;80;84;84;80;84;84;
0;0;0;0;92;96;96;90;91;91;86;89;89;80;84;84;80;84;84;
0;0;0;0;92;96;96;90;91;91;86;89;89;80;84;84;80;84;84;
0;0;0;0;92;96;96;90;91;91;86;89;89;80;84;84;80;84;84;
0;0;0;0;92;96;96;90;91;91;86;89;89;80;84;84;80;84;84;
0;0;0;0;92;96;96;90;91;91;86;89;89;80;84;84;80;84;84;
0;0;0;0;92;96;96;90;91;91;86;89;89;80;84;84;80;84;84;
0;0;0;0;92;96;96;90;91;91;86;89;89;80;84;84;80;84;84;
0;0;0;0;92;96;96;90;91;91;86;89;89;80;84;84;80;84;84;
0;0;0;0;92;96;96;90;91;91;86;89;89;80;84;84;80;84;84;
0;0;0;0;92;96;96;90;91;91;86;89;89;80;84;84;80;84;84;
0;0;0;0;92;96;96;90;91;91;86;89;89;80;84;84;80;84;84;
0;0;0;0;92;96;96;90;91;91;86;89;89;80;84;84;80;84;84;
0;0;0;0;92;96;96;90;91;91;86;89;89;80;84;84;80;84;84;
0;0;0;0;92;96;96;90;91;91;86;89;89;80;84;84;80;84;84;
0;0;0;0;92;96;96;90;91;91;86;89;89;80;84;84;80;84;84;
0;0;0;0;92;96;96;90;91;91;86;89;89;80;84;84;80;84;84;
0;0;0;0;92;96;96;90;91;91;86;89;89;80;84;84;80;84;84;
0;0;0;0;92;96;96;90;91;91;86;89;89;80;84;84;80;84;84;
0;0;0;0;92;96;96;90;91;91;86;89;89;80;84;84;80;84;84;
0;0;0;0;92;96;96;90;91;91;86;89;89;80;84;84;80;84;84;
0;0;0;0;92;96;96;90;91;91;86;89;89;80;84;84;80;84;84;
0;0;0;0;92;96;96;90;91;91;86;89;89;80;84;84;80;84;84;
0;0;0;0;92;96;96;90;91;91;86;89;89;80;84;84;80;84;84;
0;0;0;0;92;96;96;90;91;91;86;89;89;80;84;84;80;84;84;
0;0;0;0;92;96;96;90;91;91;86;89;89;80;84;84;80;84;84;
0;0;0;0;92;96;96;90;91;91;86;89;89;80;84;84;80;84;84;
0;0;0;0;92;96;96;90;91;91;86;89;89;80;84;84;80;84;84;
0;0;0;0;92;96;96;90;91;91;86;89;89;80;84;84;80;84;84;
0;0;0;0;92;96;96;90;91;91;86;89;89;80;84;84;80;84;84;
0;0;0;0;92;96;96;90;91;91;86;89;89;80;84;84;80;84;84;
0;0;0;0;92;96;96;90;91;91;86;89;89;80;84;84;80;84;84;
0;0;0;0;92;96;96;90;91;91;86;89;89;80;84;84;80;84;84;
0;0;0;0;92;96;96;90;91;91;86;89;89;80;84;84;80;84;84;
0;0;0;0;92;96;96;90;91;91;86;89;89;80;84;84;80;84;84;
0;0;0;0;92;96;96;90;91;91;86;89;89;80;84;84;80;84;84;
0;0;0;0;92;96;96;90;91;91;86;89;89;80;84;84;80;84;84;
0;0;0;0;92;96;96;90;91;91;86;89;89;80;84;84;80;84;84;
0;0;0;0;92;96;96;90;91;91;86;89;89;80;84;84;80;84;84;
0;0;0;0;92;96;96;90;91;91;86;89;89;80;84;84;80;84;84;
0;0;0;0;92;96;96;90;91;91;86;89;89;80;84;84;80;84;84;
0;0;0;0;92;96;96;90;91;91;86;89;89;80;84;84;80;84;84;
0;0;0;0;92;96;96;90;91;91;86;89;89;80;84;84;80;84;84;
0;0;0;0;92;96;96;90;91;91;86;89;89;80;84;84;80;84;84;
0;0;0;0;92;96;96;90;91;91;86;89;89;80;84;84;80;84;84;
0;0;0;0;92;96;96;90;91;91;86;89;89;80;84;84;80;84;84;
0;0;0;0;92;96;96;90;91;91;86;89;89;80;84;84;80;84;84;
0;0;0;0;92;96;96;90;91;91;86;89;89;80;84;84;80;84;84;
0;0;0;0;92;96;96;90;91;91;86;89;89;80;84;84;80;84;84;
0;0;0;0;92;96;96;90;91;91;86;89;89;80;84;84;80;84;84;
0;0;0;0;92;96;96;90;91;91;86;89;89;80;84;84;80;84;84;
0;0;0;0;92;96;96;90;91;91;86;89;89;80;84;84;80;84;84;
0;0;0;0;92;96;96;90;91;91;86;89;89;80;84;84;80;84;84;
0;0;0;0;92;96;96;90;91;91;86;89;89;80;84;84;80;84;84;
0;0;0;0;92;96;96;90;91;91;86;89;89;80;84;84;80;84;84;
0;0;0;0;92;96;96;90;91;91;86;89;89;80;84;84;80;84;84;
0;0;0;0;92;96;96;90;91;91;86;89;89;80;84;84;80;84;84;
0;0;0;0;92;96;96;90;91;91;86;89;89;80;84;84;80;84;84;
0;0;0;0;92;96;96;90;91;91;86;89;89;80;84;84;80;84;84;
0;0;0;0;92;96;96;90;91;91;86;89;89;80;84;84;80;84;84;
0;0;0;0;92;96;96;90;91;91;86;89;89;80;84;84;80;84;84;
0;0;0;0;92;96;96;90;91;91;86;89;89;80;84;84;80;84;84;
0;0;0;0;92;96;96;90;91;91;86;89;89;80;84;84;80;84;84;
0;0;0;0;92;96;96;90;91;91;86;89;89;80;84;84;80;84;84;
0;0;0;0;92;96;96;90;91;91;86;89;89;80;84;84;80;84;84;
0;0;0;0;92;96;96;90;91;91;86;89;89;80;84;84;80;84;84;
0;0;0;0;92;96;96;90;91;91;86;89;89;80;84;84;80;84;84;
0;0;0;0;92;96;96;90;91;91;86;89;89;80;84;84;80;84;84;
0;0;0;0;92;96;96;90;91;91;86;89;89;80;84;84;80;84;84;
0;0;0;0;92;96;96;90;91;91;86;89;89;80;84;84;80;84;84;
0;0;0;0;92;96;96;90;91;91;86;89;89;80;84;84;80;84;84;
0;0;0;0;92;96;96;90;91;91;86;89;89;80;84;84;80;84;84;
0;0;0;0;92;96;96;90;91;91;86;89;89;80;84;84;80;84;84;
0;0;0;0;92;96;96;90;91;91;86;89;89;80;84;84;80;84;84;
0;0;0;0;92;96;96;90;91;91;86;89;89;80;84;84;80;84;84;
0;0;0;0;92;96;96;90;91;91;86;89;89;80;84;84;80;84;84;
0;0;0;0;92;96;96;90;91;91;86;89;89;80;84;84;80;84;84;
0;0;0;0;92;96;96;90;91;91;86;89;89;80;84;84;80;84;84;
0;0;0;0;92;96;96;90;91;91;86;89;89;80;84;84;80;84;84;
0;0;0;0;92;96;96;90;91;91;86;89;89;80;84;84;80;84;84;
0;0;0;0;92;96;96;90;91;91;86;89;89;80;84;84;80;84;84;
0;0;0;0;92;96;96;90;91;91;86;89;89;80;84;84;80;84;84;
0;0;0;0;92;96;96;90;91;91;86;89;89;80;84;84;80;84;84;
0;0;0;0;92;96;96;90;91;91;86;89;89;80;84;84;80;84;84;
0;0;0;0;92;96;96;90;91;91;86;89;89;80;84;84;80;84;84;
0;0;0;0;92;96;96;90;91;91;86;89;89;80;84;84;80;84;84;
0;0;0;0;92;96;96;90;91;91;86;89;89;80;84;84;80;84;84;
0;0;0;0;92;96;96;90;91;91;86;89;89;80;84;84;80;84;84;
0;0;0;0;92;96;96;90;91;91;86;89;89;80;84;84;80;84;84;
0;0;0;0;92;96;96;90;91;91;86;89;89;80;84;84;80;84;84;
0;0;0;0;92;96;96;90;91;91;86;89;89;80;84;84;80;84;84;
0;0;0;0;92;95;95;93;94;94;93;95;95;77;82;82;76;80;80;
0;0;0;0;92;95;95;93;94;94;93;95;95;77;82;82;76;80;80;
0;0;0;0;92;95;95;93;94;94;93;95;95;77;82;82;76;80;80;
0;0;0;0;92;95;95;93;94;94;93;95;95;77;82;82;76;80;80;
0;0;0;0;92;95;95;93;94;94;93;95;95;77;82;82;76;80;80;
0;0;0;0;92;95;95;93;94;94;93;95;95;77;82;82;76;80;80;
0;0;0;0;92;95;95;93;94;94;93;95;95;77;82;82;76;80;80;
0;0;0;0;92;95;95;93;94;94;93;95;95;77;82;82;76;80;80;
0;0;0;0;92;95;95;93;94;94;93;95;95;77;82;82;76;80;80;
0;0;0;0;92;95;95;93;94;94;93;95;95;77;82;82;76;80;80;
0;0;0;0;92;95;95;92;94;94;93;95;95;77;81;81;75;79;79;
0;0;0;0;92;95;95;92;94;94;93;95;95;77;81;81;75;79;79;
0;0;0;0;92;95;95;92;94;94;93;95;95;77;81;81;75;79;79;
0;0;0;0;92;95;95;92;94;94;93;95;95;77;81;81;75;79;79;
0;0;0;0;92;95;95;92;94;94;93;95;95;77;81;81;75;79;79;
0;0;0;0;92;95;95;92;94;94;93;95;95;77;81;81;75;79;79;
0;0;0;0;92;95;95;92;94;94;93;95;95;77;81;81;75;79;79;
0;0;0;0;92;95;95;92;94;94;93;95;95;77;81;81;75;79;79;
0;0;0;0;92;95;95;92;94;94;93;95;95;77;81;81;75;79;79;
0;0;0;0;92;95;95;92;94;94;93;95;95;77;81;81;75;79;79;
0;0;0;0;92;95;95;92;94;94;93;95;95;77;81;81;75;79;79;
0;0;0;0;92;95;95;92;94;94;93;95;95;77;81;81;75;79;79;
0;0;0;0;92;95;95;92;94;94;93;95;95;77;81;81;75;79;79;
0;0;0;0;92;95;95;92;94;94;93;95;95;77;81;81;75;79;79;
0;0;0;0;92;95;95;92;94;94;93;95;95;77;81;81;75;79;79;
0;0;0;0;92;95;95;92;94;94;93;95;95;77;81;81;75;79;79;
0;0;0;0;92;95;95;92;94;94;93;95;95;77;81;81;75;79;79;
0;0;0;0;92;95;95;92;94;94;93;95;95;77;81;81;75;79;79;
0;0;0;0;92;95;95;92;94;94;93;95;95;77;81;81;75;79;79;
0;0;0;0;92;95;95;92;94;94;93;95;95;77;81;81;75;79;79;
0;0;0;0;92;95;95;92;94;94;93;95;95;77;81;81;75;79;79;
0;0;0;0;92;95;95;92;94;94;93;95;95;77;81;81;75;79;79;
0;0;0;0;92;95;95;92;94;94;93;95;95;77;81;81;75;79;79;
0;0;0;0;92;95;95;92;94;94;93;95;95;77;81;81;75;79;79;
0;0;0;0;92;95;95;92;94;94;93;95;95;77;81;81;75;79;79;
0;0;0;0;92;95;95;92;94;94;93;95;95;77;81;81;75;79;79;
0;0;0;0;92;95;95;92;94;94;93;95;95;77;81;81;75;79;79;
0;0;0;0;92;95;95;92;94;94;93;95;95;77;81;81;75;79;79;
0;0;0;0;92;95;95;92;94;94;93;95;95;77;81;81;75;79;79;
0;0;0;0;92;95;95;92;94;94;93;95;95;77;81;81;75;79;79;
0;0;0;0;92;95;95;92;94;94;93;95;95;77;81;81;75;79;79;
0;0;0;0;92;95;95;92;94;94;93;95;95;77;81;81;75;79;79;
0;0;0;0;92;95;95;92;94;94;93;95;95;77;81;81;75;79;79;
0;0;0;0;92;95;95;92;94;94;93;95;95;77;81;81;75;79;79;
0;0;0;0;92;95;95;92;94;94;93;95;95;77;81;81;75;79;79;
0;0;0;0;92;95;95;92;94;94;93;95;95;77;81;81;75;79;79;
0;0;0;0;92;95;95;92;94;94;93;95;95;77;81;81;75;79;79;
0;0;0;0;92;95;95;92;94;94;93;95;95;77;81;81;75;79;79;
0;0;0;0;92;95;95;92;94;94;93;95;95;77;81;81;75;79;79;
0;0;0;0;92;95;95;92;94;94;93;95;95;77;81;81;75;79;79;
0;0;0;0;92;95;95;92;94;94;93;95;95;77;81;81;75;79;79;
0;0;0;0;92;95;95;92;94;94;93;95;95;77;81;81;75;79;79;
0;0;0;0;92;95;95;92;94;94;93;95;95;77;81;81;75;79;79;
0;0;0;0;92;95;95;92;94;94;93;95;95;77;81;81;75;79;79;
0;0;0;0;92;95;95;92;94;94;93;95;95;77;81;81;75;79;79;
0;0;0;0;92;95;95;92;94;94;93;95;95;77;81;81;75;79;79;
0;0;0;0;92;95;95;92;94;94;93;95;95;77;81;81;75;79;79;
0;0;0;0;92;95;95;92;94;94;93;95;95;77;81;81;75;79;79;
0;0;0;0;92;95;95;92;94;94;93;95;95;77;81;81;75;79;79;
0;0;0;0;92;95;95;92;94;94;93;95;95;77;81;81;75;79;79;
0;0;0;0;92;95;95;92;94;94;93;95;95;77;81;81;75;79;79;
0;0;0;0;92;95;95;92;94;94;93;95;95;77;81;81;75;79;79;
0;0;0;0;92;95;95;92;94;94;93;95;95;77;81;81;75;79;79;
0;0;0;0;92;95;95;92;94;94;93;95;95;77;81;81;75;79;79;
0;0;0;0;92;95;95;92;94;94;93;95;95;77;81;81;75;79;79;
0;0;0;0;92;95;95;92;94;94;93;95;95;77;81;81;75;79;79;
0;0;0;0;92;95;95;92;94;94;93;95;95;77;81;81;75;79;79;
0;0;0;0;92;95;95;92;94;94;93;95;95;77;81;81;75;79;79;
0;0;0;0;92;95;95;92;94;94;93;95;95;77;81;81;75;79;79;
0;0;0;0;92;95;95;92;94;94;93;95;95;77;81;81;75;79;79;
0;0;0;0;92;95;95;92;94;94;93;95;95;77;81;81;75;79;79;
0;0;0;0;92;95;95;92;94;94;93;95;95;77;81;81;75;79;79;
0;0;0;0;92;95;95;92;94;94;93;95;95;77;81;81;75;79;79;
0;0;0;0;92;95;95;92;94;94;93;95;95;77;81;81;75;79;79;
0;0;0;0;92;95;95;92;94;94;93;95;95;77;81;81;75;79;79;
0;0;0;0;92;95;95;92;94;94;93;95;95;77;81;81;75;79;79;
0;0;0;0;92;95;95;92;94;94;93;95;95;77;81;81;75;79;79;
0;0;0;0;92;95;95;92;94;94;93;95;95;77;81;81;75;79;79;
0;0;0;0;91;93;93;91;92;92;93;94;94;73;77;77;71;76;76;
0;0;0;0;91;93;93;91;92;92;93;94;94;73;77;77;71;76;76;
0;0;0;0;91;93;93;91;92;92;93;94;94;73;77;77;71;76;76;
0;0;0;0;91;93;93;91;92;92;93;94;94;73;77;77;71;76;76;
0;0;0;0;91;93;93;91;92;92;93;94;94;73;77;77;71;76;76;
0;0;0;0;91;93;93;91;92;92;93;94;94;73;77;77;71;76;76;
0;0;0;0;91;93;93;91;92;92;93;94;94;73;77;77;71;76;76;
0;0;0;0;91;93;93;91;92;92;93;94;94;73;77;77;71;76;76;
0;0;0;0;91;93;93;91;92;92;93;94;94;73;77;77;71;76;76;
0;0;0;0;91;93;93;91;92;92;93;94;94;73;77;77;71;76;76;
0;0;0;0;91;93;93;91;92;92;93;94;94;73;77;77;71;76;76;
0;0;0;0;91;93;93;91;92;92;93;94;94;73;77;77;71;76;76;
0;0;0;0;91;93;93;91;92;92;93;94;94;73;77;77;71;76;76;
0;0;0;0;91;93;93;91;92;92;93;94;94;73;77;77;71;76;76;
0;0;0;0;91;93;93;91;92;92;93;94;94;73;77;77;71;76;76;
0;0;0;0;91;93;93;91;92;92;93;94;94;73;77;77;71;76;76;
0;0;0;0;91;93;93;91;92;92;93;94;94;73;77;77;71;76;76;
0;0;0;0;91;93;93;91;92;92;93;94;94;73;77;77;71;76;76;
0;0;0;0;91;93;93;91;92;92;93;94;94;73;77;77;71;76;76;
0;0;0;0;91;93;93;91;92;92;93;94;94;73;77;77;71;76;76;
0;0;0;0;91;93;93;91;92;92;93;94;94;73;77;77;71;76;76;
0;0;0;0;91;93;93;91;92;92;93;94;94;73;77;77;71;76;76;
0;0;0;0;91;93;93;91;92;92;93;94;94;73;77;77;71;76;76;
0;0;0;0;91;93;93;91;92;92;93;94;94;73;77;77;71;76;76;
0;0;0;0;91;93;93;91;92;92;93;94;94;73;77;77;71;76;76;
0;0;0;0;91;93;93;91;92;92;93;94;94;73;77;77;71;76;76;
0;0;0;0;91;93;93;91;92;92;93;94;94;73;77;77;71;76;76;
0;0;0;0;91;93;93;91;92;92;93;94;94;73;77;77;71;76;76;
0;0;0;0;91;93;93;91;92;92;93;94;94;73;77;77;71;76;76;
0;0;0;0;91;93;93;91;92;92;93;94;94;73;77;77;71;76;76;
0;0;0;0;91;93;93;91;92;92;93;94;94;73;77;77;71;76;76;
0;0;0;0;91;93;93;91;92;92;93;94;94;73;77;77;71;76;76;
0;0;0;0;91;93;93;91;92;92;93;94;94;73;77;77;71;76;76;
0;0;0;0;91;93;93;91;92;92;93;94;94;73;77;77;71;76;76;
0;0;0;0;91;93;93;91;92;92;93;94;94;73;77;77;71;76;76;
0;0;0;0;91;93;93;91;92;92;93;94;94;73;77;77;71;76;76;
0;0;0;0;91;93;93;91;92;92;93;94;94;73;77;77;71;76;76;
0;0;0;0;91;93;93;91;92;92;93;94;94;73;77;77;71;76;76;
0;0;0;0;91;93;93;91;92;92;93;94;94;73;77;77;71;76;76;
0;0;0;0;91;93;93;91;92;92;93;94;94;73;77;77;71;76;76;
0;0;0;0;91;93;93;91;92;92;93;94;94;73;77;77;71;76;76;
0;0;0;0;91;93;93;91;92;92;93;94;94;73;77;77;71;76;76;
0;0;0;0;91;93;93;91;92;92;93;94;94;73;77;77;71;76;76;
0;0;0;0;91;93;93;91;92;92;93;94;94;73;77;77;71;76;76;
0;0;0;0;91;93;93;91;92;92;93;94;94;73;77;77;71;76;76;
0;0;0;0;91;93;93;91;92;92;93;94;94;73;77;77;71;76;76;
0;0;0;0;91;93;93;91;92;92;93;94;94;73;77;77;71;76;76;
0;0;0;0;91;93;93;91;92;92;93;94;94;73;77;77;71;76;76;
0;0;0;0;91;93;93;91;92;92;93;94;94;73;77;77;71;76;76;
0;0;0;0;91;93;93;91;92;92;93;94;94;73;77;77;71;76;76;
0;0;0;0;91;93;93;91;92;92;93;94;94;73;77;77;71;76;76;
0;0;0;0;91;93;93;91;92;92;93;94;94;73;77;77;71;76;76;
0;0;0;0;91;93;93;91;92;92;93;94;94;73;77;77;71;76;76;
0;0;0;0;91;93;93;91;92;92;93;94;94;73;77;77;71;76;76;
0;0;0;0;91;93;93;91;92;92;93;94;94;73;77;77;71;76;76;
0;0;0;0;91;93;93;91;92;92;93;94;94;73;77;77;71;76;76;
0;0;0;0;91;93;93;91;92;92;93;94;94;73;77;77;71;76;76;
0;0;0;0;91;93;93;91;92;92;93;94;94;73;77;77;71;76;76;
0;0;0;0;91;93;93;91;92;92;93;94;94;73;77;77;71;76;76;
0;0;0;0;91;93;93;91;92;92;93;94;94;73;77;77;71;76;76;
0;0;0;0;91;93;93;91;92;92;93;94;94;73;77;77;71;76;76;
0;0;0;0;91;93;93;91;92;92;93;94;94;73;77;77;71;76;76;
0;0;0;0;91;93;93;91;92;92;93;94;94;73;77;77;71;76;76;
0;0;0;0;91;93;93;91;92;92;93;94;94;73;77;77;71;76;76;
0;0;0;0;91;93;93;91;92;92;93;94;94;73;77;77;71;76;76;
0;0;0;0;91;93;93;91;92;92;93;94;94;73;77;77;71;76;76;
0;0;0;0;91;93;93;91;92;92;93;94;94;73;77;77;71;76;76;
0;0;0;0;91;93;93;91;92;92;93;94;94;73;77;77;71;76;76;
0;0;0;0;91;93;93;91;92;92;93;94;94;73;77;77;71;76;76;
0;0;0;0;91;93;93;91;92;92;93;94;94;73;77;77;71;76;76;
0;0;0;0;91;93;93;91;92;92;93;94;94;73;77;77;71;76;76;
0;0;0;0;91;93;93;91;92;92;93;94;94;73;77;77;71;76;76;
0;0;0;0;91;93;93;91;92;92;93;94;94;73;77;77;71;76;76;
0;0;0;0;91;93;93;91;92;92;93;94;94;73;77;77;71;76;76;
0;0;0;0;91;93;93;91;92;92;93;94;94;73;77;77;71;76;76;
0;0;0;0;91;93;93;91;92;92;93;94;94;73;77;77;71;76;76;
0;0;0;0;91;93;93;91;92;92;93;94;94;73;77;77;71;76;76;
0;0;0;0;91;93;93;91;92;92;93;94;94;73;77;77;71;76;76;
0;0;0;0;91;93;93;91;92;92;93;94;94;73;77;77;71;76;76;
0;0;0;0;91;93;93;91;92;92;93;94;94;73;77;77;71;76;76;
0;0;0;0;91;93;93;91;92;92;93;94;94;73;77;77;71;76;76;
0;0;0;0;91;93;93;91;92;92;93;94;94;73;77;77;71;76;76;
0;0;0;0;91;93;93;91;92;92;93;94;94;73;77;77;71;76;76;
0;0;0;0;91;93;93;91;92;92;93;94;94;73;77;77;71;76;76;
0;0;0;0;91;93;93;91;92;92;93;94;94;73;77;77;71;76;76;
0;0;0;0;91;93;93;91;92;92;93;94;94;73;77;77;71;76;76;
0;0;0;0;91;93;93;91;92;92;93;94;94;73;77;77;71;76;76;
0;0;0;0;89;90;90;87;89;89;87;90;90;67;72;72;67;71;71;
0;0;0;0;89;90;90;87;89;89;87;90;90;67;72;72;67;71;71;
0;0;0;0;89;90;90;87;89;89;87;90;90;67;72;72;67;71;71;
0;0;0;0;89;90;90;87;89;89;87;90;90;67;72;72;67;71;71;
0;0;0;0;89;90;90;87;89;89;87;90;90;67;72;72;67;71;71;
0;0;0;0;89;90;90;87;89;89;87;90;90;67;72;72;67;71;71;
0;0;0;0;89;90;90;87;89;89;87;90;90;67;72;72;67;71;71;
0;0;0;0;89;90;90;87;89;89;87;90;90;67;72;72;67;71;71;
0;0;0;0;89;90;90;87;89;89;87;90;90;67;72;72;67;71;71;
0;0;0;0;89;90;90;87;89;89;87;90;90;67;72;72;67;71;71;
0;0;0;0;89;90;90;87;89;89;87;90;90;67;72;72;67;71;71;
0;0;0;0;89;90;90;87;89;89;87;90;90;67;72;72;67;71;71;
0;0;0;0;89;90;90;87;89;89;87;90;90;67;72;72;67;71;71;
0;0;0;0;89;90;90;87;89;89;87;90;90;67;72;72;67;71;71;
0;0;0;0;89;90;90;87;89;89;87;90;90;67;72;72;67;71;71;
0;0;0;0;89;90;90;87;89;89;87;90;90;67;72;72;67;71;71;
0;0;0;0;89;90;90;87;89;89;87;90;90;67;72;72;67;71;71;
0;0;0;0;89;90;90;87;89;89;87;90;90;67;72;72;67;71;71;
0;0;0;0;89;90;90;87;89;89;87;90;90;67;72;72;67;71;71;
0;0;0;0;89;90;90;87;89;89;87;90;90;67;72;72;67;71;71;
0;0;0;0;89;90;90;87;89;89;87;90;90;67;72;72;67;71;71;
0;0;0;0;89;90;90;87;89;89;87;90;90;67;72;72;67;71;71;
0;0;0;0;89;90;90;87;89;89;87;90;90;67;72;72;67;71;71;
0;0;0;0;89;90;90;87;89;89;87;90;90;67;72;72;67;71;71;
0;0;0;0;89;90;90;87;89;89;87;90;90;67;72;72;67;71;71;
0;0;0;0;89;90;90;87;89;89;87;90;90;67;72;72;67;71;71;
0;0;0;0;89;90;90;87;89;89;87;90;90;67;72;72;67;71;71;
0;0;0;0;89;90;90;87;89;89;87;90;90;67;72;72;67;71;71;
0;0;0;0;89;90;90;87;89;89;87;90;90;67;72;72;67;71;71;
0;0;0;0;89;90;90;87;89;89;87;90;90;67;72;72;67;71;71;
0;0;0;0;89;90;90;87;89;89;87;90;90;67;72;72;67;71;71;
0;0;0;0;89;90;90;87;89;89;87;90;90;67;72;72;67;71;71;
0;0;0;0;89;90;90;87;89;89;87;90;90;67;72;72;67;71;71;
0;0;0;0;89;90;90;87;89;89;87;90;90;67;72;72;67;71;71;
0;0;0;0;89;90;90;87;89;89;87;90;90;67;72;72;67;71;71;
0;0;0;0;89;90;90;87;89;89;87;90;90;67;72;72;67;71;71;
0;0;0;0;89;90;90;87;89;89;87;90;90;67;72;72;67;71;71;
0;0;0;0;89;90;90;87;89;89;87;90;90;67;72;72;67;71;71;
0;0;0;0;89;90;90;87;89;89;87;90;90;67;72;72;67;71;71;
0;0;0;0;89;90;90;87;89;89;87;90;90;67;72;72;67;71;71;
0;0;0;0;89;90;90;87;89;89;87;90;90;67;72;72;67;71;71;
0;0;0;0;89;90;90;87;89;89;87;90;90;67;72;72;67;71;71;
0;0;0;0;89;90;90;87;89;89;87;90;90;67;72;72;67;71;71;
0;0;0;0;89;90;90;87;89;89;87;90;90;67;72;72;67;71;71;
0;0;0;0;89;90;90;87;89;89;87;90;90;67;72;72;67;71;71;
0;0;0;0;89;90;90;87;89;89;87;90;90;67;72;72;67;71;71;
0;0;0;0;89;90;90;87;89;89;87;90;90;67;72;72;67;71;71;
0;0;0;0;89;90;90;87;89;89;87;90;90;67;72;72;67;71;71;
0;0;0;0;89;90;90;87;89;89;87;90;90;67;72;72;67;71;71;
0;0;0;0;89;90;90;87;89;89;87;90;90;67;72;72;67;71;71;
0;0;0;0;89;90;90;87;89;89;87;90;90;67;72;72;67;71;71;
0;0;0;0;89;90;90;87;89;89;87;90;90;67;72;72;67;71;71;
0;0;0;0;89;90;90;87;89;89;87;90;90;67;72;72;67;71;71;
0;0;0;0;89;90;90;87;89;89;87;90;90;67;72;72;67;71;71;
0;0;0;0;89;90;90;87;89;89;87;90;90;67;72;72;67;71;71;
0;0;0;0;89;90;90;87;89;89;87;90;90;67;72;72;67;71;71;
0;0;0;0;89;90;90;87;89;89;87;90;90;67;72;72;67;71;71;
0;0;0;0;89;90;90;87;89;89;87;90;90;67;72;72;67;71;71;
0;0;0;0;89;90;90;87;89;89;87;90;90;67;72;72;67;71;71;
0;0;0;0;89;90;90;87;89;89;87;90;90;67;72;72;67;71;71;
0;0;0;0;89;90;90;87;89;89;87;90;90;67;72;72;67;71;71;
0;0;0;0;89;90;90;87;89;89;87;90;90;67;72;72;67;71;71;
0;0;0;0;89;90;90;87;89;89;87;90;90;67;72;72;67;71;71;
0;0;0;0;89;90;90;87;89;89;87;90;90;67;72;72;67;71;71;
0;0;0;0;89;90;90;87;89;89;87;90;90;67;72;72;67;71;71;
0;0;0;0;89;90;90;87;89;89;87;90;90;67;72;72;67;71;71;
0;0;0;0;89;90;90;87;89;89;87;90;90;67;72;72;67;71;71;
0;0;0;0;89;90;90;87;89;89;87;90;90;67;72;72;67;71;71;
0;0;0;0;89;90;90;87;89;89;87;90;90;67;72;72;67;71;71;
0;0;0;0;89;90;90;87;89;89;87;90;90;67;72;72;67;71;71;
0;0;0;0;89;90;90;87;89;89;87;90;90;67;72;72;67;71;71;
0;0;0;0;89;90;90;87;89;89;87;90;90;67;72;72;67;71;71;
0;0;0;0;89;90;90;87;89;89;87;90;90;67;72;72;67;71;71;
0;0;0;0;89;90;90;87;89;89;87;90;90;67;72;72;67;71;71;
0;0;0;0;89;90;90;87;89;89;87;90;90;67;72;72;67;71;71;
0;0;0;0;89;90;90;87;89;89;87;90;90;67;72;72;67;71;71;
0;0;0;0;89;90;90;87;89;89;87;90;90;67;72;72;67;71;71;
0;0;0;0;89;90;90;87;89;89;87;90;90;67;72;72;67;71;71;
0;0;0;0;89;90;90;87;89;89;87;90;90;67;72;72;67;71;71;
0;0;0;0;89;90;90;87;89;89;87;90;90;67;72;72;67;71;71;
0;0;0;0;89;90;90;87;89;89;87;90;90;67;72;72;67;71;71;
0;0;0;0;89;90;90;87;89;89;87;90;90;67;72;72;67;71;71;
0;0;0;0;89;90;90;87;89;89;87;90;90;67;72;72;67;71;71;
0;0;0;0;89;90;90;87;89;89;87;90;90;67;72;72;67;71;71;
0;0;0;0;89;90;90;87;89;89;87;90;90;67;72;72;67;71;71;
0;0;0;0;89;90;90;87;89;89;87;90;90;67;72;72;67;71;71;
0;0;0;0;89;90;90;87;89;89;87;90;90;67;72;72;67;71;71;
0;0;0;0;89;90;90;87;89;89;87;90;90;67;72;72;67;71;71;
0;0;0;0;89;90;90;87;89;89;87;90;90;67;72;72;67;71;71;
0;0;0;0;89;90;90;87;89;89;87;90;90;67;72;72;67;71;71;
0;0;0;0;89;90;90;87;89;89;87;90;90;67;72;72;67;71;71;
0;0;0;0;89;90;90;87;89;89;87;90;90;67;72;72;67;71;71;
0;0;0;0;89;90;90;87;89;89;87;90;90;67;72;72;67;71;71;
0;0;0;0;89;90;90;87;89;89;87;90;90;67;72;72;67;71;71;
0;0;0;0;89;90;90;87;89;89;87;90;90;67;72;72;67;71;71;
0;0;0;0;89;90;90;87;89;89;87;90;90;67;72;72;67;71;71;
0;0;0;0;89;90;90;87;89;89;87;90;90;67;72;72;67;71;71;
0;0;0;0;89;90;90;87;89;89;87;90;90;67;72;72;67;71;71;
0;0;0;0;89;90;90;87;89;89;87;90;90;67;72;72;67;71;71;
0;0;0;0;89;90;90;87;89;89;87;90;90;67;72;72;67;71;71;
0;0;0;0;89;90;90;87;89;89;87;90;90;67;72;72;67;71;71;
0;0;0;0;89;90;90;87;89;89;87;90;90;67;72;72;67;71;71;
0;0;0;0;89;90;90;87;89;89;87;90;90;67;72;72;67;71;71;
0;0;0;0;89;90;90;87;89;89;87;90;90;67;72;72;67;71;71;
0;0;0;0;89;90;90;87;89;89;87;90;90;67;72;72;67;71;71;
0;0;0;0;89;90;90;87;89;89;87;90;90;67;72;72;67;71;71;
0;0;0;0;89;90;90;87;89;89;87;90;90;67;72;72;67;71;71;
0;0;0;0;89;90;90;87;89;89;87;90;90;67;72;72;67;71;71;
0;0;0;0;89;90;90;87;89;89;87;90;90;67;72;72;67;71;71;
0;0;0;0;89;90;90;87;89;89;87;90;90;67;72;72;67;71;71;
0;0;0;0;89;90;90;87;89;89;87;90;90;67;72;72;67;71;71;
0;0;0;0;89;90;90;87;89;89;87;90;90;67;72;72;67;71;71;
0;0;0;0;89;90;90;87;89;89;87;90;90;67;72;72;67;71;71;
0;0;0;0;89;90;90;87;89;89;87;90;90;67;72;72;67;71;71;
0;0;0;0;89;90;90;87;89;89;87;90;90;67;72;72;67;71;71;
0;0;0;0;89;90;90;87;89;89;87;90;90;67;72;72;67;71;71;
0;0;0;0;89;90;90;87;89;89;87;90;90;67;72;72;67;71;71;
0;0;0;0;89;90;90;87;89;89;87;90;90;67;72;72;67;71;71;
0;0;0;0;89;90;90;87;89;89;87;90;90;67;72;72;67;71;71;
0;0;0;0;89;90;90;87;89;89;87;90;90;67;72;72;67;71;71;
0;0;0;0;89;90;90;87;89;89;87;90;90;67;72;72;67;71;71;
0;0;0;0;89;90;90;87;89;89;87;90;90;67;72;72;67;71;71;
0;0;0;0;89;90;90;87;89;89;87;90;90;67;72;72;67;71;71;
0;0;0;0;89;90;90;87;89;89;87;90;90;67;72;72;67;71;71;
0;0;0;0;89;90;90;87;89;89;87;90;90;67;72;72;67;71;71;
0;0;0;0;89;90;90;87;89;89;87;90;90;67;72;72;67;71;71;
0;0;0;0;89;90;90;87;89;89;87;90;90;67;72;72;67;71;71;
0;0;0;0;89;90;90;87;89;89;87;90;90;67;72;72;67;71;71;
0;0;0;0;89;90;90;87;89;89;87;90;90;67;72;72;67;71;71;
0;0;0;0;89;90;90;87;89;89;87;90;90;67;72;72;67;71;71;
0;0;0;0;89;90;90;87;89;89;87;90;90;67;72;72;67;71;71;
0;0;0;0;89;90;90;87;89;89;87;90;90;67;72;72;67;71;71;
0;0;0;0;89;90;90;87;89;89;87;90;90;67;72;72;67;71;71;
0;0;0;0;89;90;90;87;89;89;87;90;90;67;72;72;67;71;71;
0;0;0;0;89;90;90;87;89;89;87;90;90;67;72;72;67;71;71;
0;0;0;0;89;90;90;87;89;89;87;90;90;67;72;72;67;71;71;
0;0;0;0;89;90;90;87;89;89;87;90;90;67;72;72;67;71;71;
0;0;0;0;89;90;90;87;89;89;87;90;90;67;72;72;67;71;71;
0;0;0;0;89;90;90;87;89;89;87;90;90;67;72;72;67;71;71;
0;0;0;0;89;90;90;87;89;89;87;90;90;67;72;72;67;71;71;
0;0;0;0;89;90;90;87;89;89;87;90;90;67;72;72;67;71;71;
0;0;0;0;89;90;90;87;89;89;87;90;90;67;72;72;67;71;71;
0;0;0;0;89;90;90;87;89;89;87;90;90;67;72;72;67;71;71;
0;0;0;0;89;90;90;87;89;89;87;90;90;67;72;72;67;71;71;
0;0;0;0;89;90;90;87;89;89;87;90;90;67;72;72;67;71;71;
0;0;0;0;89;90;90;87;89;89;87;90;90;67;72;72;67;71;71;
0;0;0;0;89;90;90;87;89;89;87;90;90;67;72;72;67;71;71;
0;0;0;0;89;90;90;87;89;89;87;90;90;67;72;72;67;71;71;
0;0;0;0;89;90;90;87;89;89;87;90;90;67;72;72;67;71;71;
0;0;0;0;89;90;90;87;89;89;87;90;90;67;72;72;67;71;71;
0;0;0;0;89;90;90;87;89;89;87;90;90;67;72;72;67;71;71;
0;0;0;0;89;90;90;87;89;89;87;90;90;67;72;72;67;71;71;
0;0;0;0;89;90;90;87;89;89;87;90;90;67;72;72;67;71;71;
0;0;0;0;89;90;90;87;89;89;87;90;90;67;72;72;67;71;71;
0;0;0;0;89;90;90;87;89;89;87;90;90;67;72;72;67;71;71;
0;0;0;0;89;90;90;87;89;89;87;90;90;67;72;72;67;71;71;
0;0;0;0;89;90;90;87;89;89;87;90;90;67;72;72;67;71;71;
0;0;0;0;89;90;90;87;89;89;87;90;90;67;72;72;67;71;71;
0;0;0;0;89;90;90;87;89;89;87;90;90;67;72;72;67;71;71;
0;0;0;0;89;90;90;87;89;89;87;90;90;67;72;72;67;71;71;
0;0;0;0;89;90;90;87;89;89;87;90;90;67;72;72;67;71;71;
0;0;0;0;89;90;90;87;89;89;87;90;90;67;72;72;67;71;71;
0;0;0;0;89;90;90;87;89;89;87;90;90;67;72;72;67;71;71;
0;0;0;0;89;90;90;87;89;89;87;90;90;67;72;72;67;71;71;
0;0;0;0;89;90;90;87;89;89;87;90;90;67;72;72;67;71;71;
0;0;0;0;89;90;90;87;89;89;87;90;90;67;72;72;67;71;71;
0;0;0;0;89;90;90;87;89;89;87;90;90;67;72;72;67;71;71;
0;0;0;0;89;90;90;87;89;89;87;90;90;67;72;72;67;71;71;
0;0;0;0;89;90;90;87;89;89;87;90;90;67;72;72;67;71;71;
0;0;0;0;89;90;90;87;89;89;87;90;90;67;72;72;67;71;71;
0;0;0;0;89;90;90;87;89;89;87;90;90;67;72;72;67;71;71;
0;0;0;0;89;90;90;87;89;89;87;90;90;67;72;72;67;71;71;
0;0;0;0;89;90;90;87;89;89;87;90;90;67;72;72;67;71;71;
0;0;0;0;89;90;90;87;89;89;87;90;90;67;72;72;67;71;71;
0;0;0;0;89;90;90;87;89;89;87;90;90;67;72;72;67;71;71;
0;0;0;0;89;90;90;87;89;89;87;90;90;67;72;72;67;71;71;
0;0;0;0;89;90;90;87;89;89;87;90;90;67;72;72;67;71;71;
0;0;0;0;89;90;90;87;89;89;87;90;90;67;72;72;67;71;71;
0;0;0;0;89;90;90;87;89;89;87;90;90;67;72;72;67;71;71;
0;0;0;0;89;90;90;87;89;89;87;90;90;67;72;72;67;71;71;
0;0;0;0;91;91;91;82;85;85;95;97;97;75;78;78;75;78;78;
0;0;0;0;91;91;91;82;85;85;95;97;97;75;78;78;75;78;78;
0;0;0;0;91;91;91;82;85;85;95;97;97;75;78;78;75;78;78;
0;0;0;0;91;91;91;82;85;85;95;97;97;75;78;78;75;78;78;
0;0;0;0;91;91;91;82;85;85;95;97;97;75;78;78;75;78;78;
0;0;0;0;91;91;91;82;85;85;95;97;97;75;78;78;75;78;78;
0;0;0;0;91;91;91;82;85;85;95;97;97;75;78;78;75;78;78;
0;0;0;0;91;91;91;82;85;85;95;97;97;75;78;78;75;78;78;
0;0;0;0;90;91;91;80;84;84;95;97;97;76;79;79;76;79;79;
0;0;0;0;90;91;91;80;84;84;95;97;97;76;79;79;76;79;79;
0;0;0;0;90;91;91;80;84;84;95;97;97;76;79;79;76;79;79;
0;0;0;0;90;91;91;80;84;84;95;97;97;76;79;79;76;79;79;
0;0;0;0;90;91;91;80;84;84;95;97;97;76;79;79;76;79;79;
0;0;0;0;90;91;91;80;84;84;95;97;97;76;79;79;76;79;79;
0;0;0;0;90;91;91;80;84;84;95;97;97;76;79;79;76;79;79;
0;0;0;0;90;91;91;80;84;84;95;97;97;76;79;79;76;79;79;
0;0;0;0;90;91;91;80;84;84;95;97;97;76;79;79;76;79;79;
0;0;0;0;90;91;91;80;84;84;95;97;97;76;79;79;76;79;79;
0;0;0;0;89;90;90;77;81;81;95;96;96;76;79;79;74;77;77;
0;0;0;0;86;86;86;72;76;76;92;94;94;71;74;74;70;73;73;
0;0;0;0;86;86;86;72;76;76;92;94;94;71;74;74;70;73;73;
0;0;0;0;86;86;86;72;76;76;92;94;94;71;74;74;70;73;73;
0;0;0;0;86;86;86;72;76;76;92;94;94;71;74;74;70;73;73;
0;0;0;0;86;86;86;72;76;76;92;94;94;71;74;74;70;73;73;
0;0;0;0;86;86;86;72;76;76;92;94;94;71;74;74;70;73;73;
0;0;0;0;86;86;86;72;76;76;92;94;94;71;74;74;70;73;73;
0;0;0;0;86;86;86;72;76;76;92;94;94;71;74;74;70;73;73;
0;0;0;0;86;86;86;72;76;76;92;94;94;71;74;74;70;73;73;
0;0;0;0;86;86;86;72;76;76;92;94;94;71;74;74;70;73;73;
0;0;0;0;86;86;86;72;76;76;92;94;94;71;74;74;70;73;73;
0;0;0;0;86;86;86;72;76;76;92;94;94;71;74;74;70;73;73;
0;0;0;0;86;86;86;72;76;76;92;94;94;71;74;74;70;73;73;
0;0;0;0;86;86;86;72;76;76;92;94;94;71;74;74;70;73;73;
0;0;0;0;86;86;86;72;76;76;92;94;94;71;74;74;70;73;73;
0;0;0;0;86;86;86;72;76;76;92;94;94;71;74;74;70;73;73;
0;0;0;0;86;86;86;72;76;76;92;94;94;71;74;74;70;73;73;
0;0;0;0;86;86;86;72;76;76;92;94;94;71;74;74;70;73;73;
0;0;0;0;86;86;86;72;76;76;92;94;94;71;74;74;70;73;73;
0;0;0;0;86;86;86;72;76;76;92;94;94;71;74;74;70;73;73;
0;0;0;0;86;86;86;72;76;76;92;94;94;71;74;74;70;73;73;
