## File generated by myo_cap software 
## Available from github.com/ddantas/myo_cap 
## Timestamp: 2019-02-04_14-50-29 
##  
## EMG capture settings 
##  
# sampleRate: 2000 
# channelsPerBoard: 4 
# nBoards: 1 
# bitsPerSample: 12 
## File generated by myo_cap software 
## Available from github.com/ddantas/myo_cap 
## Timestamp: 2019-02-04_14-55-54 
##  
## EMG capture settings 
##  
# sampleRate: 2000 
# channelsPerBoard: 4 
# nBoards: 1 
# bitsPerSample: 12 
# ch/%d;%d;%d;%d;key/%d;%d;%d;%d;%d;;ch/%d;%d;%d;%d;key/%d;%d;%d;%d;%d;
142;187;254;29;0;0;0;0;0;
68;106;186;21;0;0;0;0;0;
68;106;186;21;0;0;0;0;0;
68;106;186;21;0;0;0;0;0;
68;106;186;21;0;0;0;0;0;
68;106;186;21;0;0;0;0;0;
68;106;186;21;0;0;0;0;0;
68;106;186;21;0;0;0;0;0;
68;106;186;21;0;0;0;0;0;
68;106;186;21;0;0;0;0;0;
68;106;186;21;0;0;0;0;0;
68;106;186;21;0;0;0;0;0;
68;106;186;21;0;0;0;0;0;
68;106;186;21;0;0;0;0;0;
68;106;186;21;0;0;0;0;0;
68;106;186;21;0;0;0;0;0;
68;106;186;21;0;0;0;0;0;
68;106;186;21;0;0;0;0;0;
68;106;186;21;0;0;0;0;0;
46;70;138;15;0;0;0;0;0;
38;51;98;13;0;0;0;0;0;
36;46;79;10;0;0;0;0;0;
30;38;74;9;0;0;0;0;0;
36;40;62;8;0;0;0;0;0;
36;40;58;7;0;0;0;0;0;
36;43;58;6;0;0;0;0;0;
30;34;51;6;0;0;0;0;0;
30;34;50;5;0;0;0;0;0;
32;34;46;5;0;0;0;0;0;
32;34;46;5;0;0;0;0;0;
30;34;46;5;0;0;0;0;0;
30;34;46;5;0;0;0;0;0;
30;34;46;5;0;0;0;0;0;
30;34;46;5;0;0;0;0;0;
28;32;42;5;0;0;0;0;0;
28;32;42;4;0;0;0;0;0;
22;32;42;5;0;0;0;0;0;
22;24;35;4;0;0;0;0;0;
30;32;40;4;0;0;0;0;0;
22;24;34;4;0;0;0;0;0;
30;32;34;3;0;0;0;0;0;
28;32;34;3;0;0;0;0;0;
30;32;40;3;0;0;0;0;0;
30;32;40;3;0;0;0;0;0;
30;32;40;3;0;0;0;0;0;
28;32;40;4;0;0;0;0;0;
28;32;42;4;0;0;0;0;0;
28;32;34;3;0;0;0;0;0;
22;26;35;4;0;0;0;0;0;
22;26;35;4;0;0;0;0;0;
30;32;40;3;0;0;0;0;0;
30;34;42;4;0;0;0;0;0;
30;34;42;4;0;0;0;0;0;
30;34;42;4;0;0;0;0;0;
30;35;42;4;0;0;0;0;0;
36;38;46;4;0;0;0;0;0;
30;38;47;5;0;0;0;0;0;
30;35;46;5;0;0;0;0;0;
28;34;47;5;0;0;0;0;0;
30;35;47;5;0;0;0;0;0;
28;32;46;5;0;0;0;0;0;
32;32;42;5;0;0;0;0;0;
30;35;46;5;0;0;0;0;0;
30;35;47;5;0;0;0;0;0;
28;32;47;5;0;0;0;0;0;
30;32;46;5;0;0;0;0;0;
30;35;50;5;0;0;0;0;0;
30;32;42;5;0;0;0;0;0;
30;35;43;4;0;0;0;0;0;
30;35;43;4;0;0;0;0;0;
30;35;43;4;0;0;0;0;0;
30;35;43;4;0;0;0;0;0;
30;35;43;4;0;0;0;0;0;
30;35;47;5;0;0;0;0;0;
30;35;47;5;0;0;0;0;0;
30;35;47;5;0;0;0;0;0;
30;35;47;5;0;0;0;0;0;
30;35;47;5;0;0;0;0;0;
28;32;42;5;0;0;0;0;0;
28;32;42;5;0;0;0;0;0;
28;32;42;5;0;0;0;0;0;
30;34;43;5;0;0;0;0;0;
28;32;42;5;0;0;0;0;0;
28;32;42;4;0;0;0;0;0;
28;32;42;4;0;0;0;0;0;
28;32;42;4;0;0;0;0;0;
30;34;42;4;0;0;0;0;0;
28;32;42;4;0;0;0;0;0;
28;32;42;4;0;0;0;0;0;
28;32;42;4;0;0;0;0;0;
28;32;42;4;0;0;0;0;0;
28;32;34;4;0;0;0;0;0;
28;32;34;4;0;0;0;0;0;
30;32;40;3;0;0;0;0;0;
30;32;40;3;0;0;0;0;0;
30;32;40;3;0;0;0;0;0;
28;32;42;4;0;0;0;0;0;
22;20;34;3;0;0;0;0;0;
22;20;34;3;0;0;0;0;0;
22;20;34;3;0;0;0;0;0;
22;20;34;3;0;0;0;0;0;
22;20;34;3;0;0;0;0;0;
22;20;34;3;0;0;0;0;0;
22;20;34;3;0;0;0;0;0;
30;32;34;3;0;0;0;0;0;
30;32;34;3;0;0;0;0;0;
22;26;34;3;0;0;0;0;0;
22;26;34;3;0;0;0;0;0;
22;26;34;3;0;0;0;0;0;
22;26;34;3;0;0;0;0;0;
22;26;34;3;0;0;0;0;0;
22;26;34;3;0;0;0;0;0;
22;26;34;3;0;0;0;0;0;
22;26;34;3;0;0;0;0;0;
28;24;34;3;0;0;0;0;0;
28;24;34;3;0;0;0;0;0;
28;24;34;3;0;0;0;0;0;
28;24;34;3;0;0;0;0;0;
28;24;34;3;0;0;0;0;0;
28;24;34;3;0;0;0;0;0;
28;24;34;3;0;0;0;0;0;
28;24;34;3;0;0;0;0;0;
28;32;42;4;0;0;0;0;0;
28;32;42;4;0;0;0;0;0;
28;32;42;4;0;0;0;0;0;
28;26;34;3;0;0;0;0;0;
28;24;34;3;0;0;0;0;0;
28;24;34;3;0;0;0;0;0;
28;24;34;3;0;0;0;0;0;
28;24;34;3;0;0;0;0;0;
28;24;34;3;0;0;0;0;0;
28;24;34;3;0;0;0;0;0;
28;24;34;3;0;0;0;0;0;
28;32;40;4;0;0;0;0;0;
28;32;40;4;0;0;0;0;0;
28;32;40;4;0;0;0;0;0;
28;32;40;4;0;0;0;0;0;
28;32;40;4;0;0;0;0;0;
28;32;40;4;0;0;0;0;0;
28;32;40;4;0;0;0;0;0;
28;32;40;4;0;0;0;0;0;
28;32;40;4;0;0;0;0;0;
28;32;40;4;0;0;0;0;0;
28;32;40;4;0;0;0;0;0;
28;32;40;4;0;0;0;0;0;
28;32;42;4;0;0;0;0;0;
28;32;42;4;0;0;0;0;0;
32;32;42;4;0;0;0;0;0;
32;32;42;4;0;0;0;0;0;
32;32;42;4;0;0;0;0;0;
30;32;42;4;0;0;0;0;0;
30;32;42;4;0;0;0;0;0;
30;32;42;4;0;0;0;0;0;
30;32;42;4;0;0;0;0;0;
36;35;42;4;0;0;0;0;0;
32;35;46;5;0;0;0;0;0;
30;35;46;5;0;0;0;0;0;
30;35;47;5;0;0;0;0;0;
28;34;47;5;0;0;0;0;0;
30;32;43;5;0;0;0;0;0;
30;32;43;5;0;0;0;0;0;
30;32;43;5;0;0;0;0;0;
30;32;43;5;0;0;0;0;0;
30;32;43;5;0;0;0;0;0;
30;32;43;5;0;0;0;0;0;
30;32;43;5;0;0;0;0;0;
30;32;43;5;0;0;0;0;0;
30;32;43;5;0;0;0;0;0;
30;32;43;5;0;0;0;0;0;
30;32;43;5;0;0;0;0;0;
30;32;43;5;0;0;0;0;0;
30;32;43;5;0;0;0;0;0;
30;39;50;5;0;0;0;0;0;
30;39;50;5;0;0;0;0;0;
30;39;50;5;0;0;0;0;0;
30;39;50;5;0;0;0;0;0;
30;39;50;5;0;0;0;0;0;
30;39;50;5;0;0;0;0;0;
30;39;50;5;0;0;0;0;0;
30;39;50;5;0;0;0;0;0;
30;39;50;5;0;0;0;0;0;
30;39;50;5;0;0;0;0;0;
30;39;50;5;0;0;0;0;0;
30;39;50;5;0;100;0;0;0;
30;39;50;5;0;100;0;0;0;
30;39;50;5;0;100;0;0;0;
30;39;50;5;0;100;0;0;0;
30;39;50;5;0;100;0;0;0;
30;39;50;5;0;100;0;0;0;
30;39;50;5;0;100;0;0;0;
28;32;47;5;0;100;0;0;0;
28;32;47;5;0;100;0;0;0;
28;32;47;5;0;100;0;0;0;
28;32;47;5;0;100;0;0;0;
28;32;47;5;0;0;0;0;0;
28;32;47;5;0;0;0;0;0;
28;32;47;5;0;0;0;0;0;
28;32;47;5;0;0;0;0;0;
28;32;47;5;0;0;0;0;0;
28;32;47;5;0;0;0;0;0;
28;32;47;5;0;0;0;0;0;
28;32;47;5;0;0;0;0;0;
28;32;47;5;0;0;0;0;0;
30;35;51;5;0;0;0;0;0;
30;35;51;5;0;0;0;0;0;
30;35;51;5;0;0;0;0;0;
30;35;51;5;0;0;0;0;0;
30;35;51;5;0;0;0;0;0;
30;35;51;5;0;0;0;0;0;
30;35;51;5;0;0;0;0;0;
30;35;51;5;0;0;0;0;0;
30;35;51;5;0;0;100;0;0;
30;35;51;5;0;0;100;0;0;
30;35;51;5;0;0;100;0;0;
30;35;51;5;0;0;100;0;0;
30;35;51;5;0;0;100;0;0;
30;35;51;5;0;0;0;0;0;
30;35;51;5;0;0;0;0;0;
30;35;46;5;0;0;0;0;0;
30;35;46;5;0;0;0;0;0;
32;32;42;4;0;0;0;0;0;
32;32;42;4;0;0;0;0;0;
32;32;42;4;0;0;0;0;0;
32;32;42;4;0;0;0;0;0;
32;32;42;4;0;0;0;0;0;
28;32;43;5;0;0;0;0;0;
28;32;43;5;0;0;0;0;0;
28;32;43;5;0;0;0;0;0;
28;32;43;5;0;0;0;0;0;
28;32;43;5;0;0;0;0;0;
28;32;43;5;0;0;100;0;0;
28;32;43;5;0;0;100;0;0;
28;32;43;5;0;0;100;0;0;
28;32;43;5;0;0;100;0;0;
28;32;42;4;0;0;100;0;0;
28;32;42;4;0;0;100;0;0;
28;32;40;4;0;0;100;0;0;
28;32;40;4;0;0;100;0;0;
28;32;40;4;0;0;100;0;0;
28;32;40;4;0;0;100;0;0;
28;32;40;4;0;0;100;0;0;
28;32;40;4;0;0;100;0;0;
28;32;40;4;0;0;100;0;0;
28;32;40;4;0;0;100;0;0;
28;32;40;4;0;0;100;0;0;
28;26;42;5;0;0;100;0;0;
28;26;42;5;0;0;100;0;0;
28;26;42;5;0;0;0;0;0;
28;26;42;5;0;0;0;0;0;
28;26;42;5;0;0;0;0;0;
28;26;42;5;0;0;0;0;0;
30;32;42;4;0;0;0;0;0;
30;32;42;4;0;0;0;0;0;
30;32;42;4;0;0;0;0;0;
30;32;42;4;0;0;0;0;0;
30;32;42;4;0;0;0;0;0;
22;24;34;4;0;0;0;0;0;
22;24;34;4;0;0;0;0;0;
22;24;34;4;0;0;0;0;0;
22;24;34;4;0;0;0;0;0;
22;24;34;4;0;0;0;0;0;
22;24;34;4;0;0;0;0;0;
22;24;34;4;0;0;0;0;0;
22;24;34;4;0;0;0;0;0;
22;24;34;4;0;0;0;0;0;
22;24;34;4;0;0;0;0;0;
22;24;34;4;0;0;0;0;0;
22;26;40;4;0;0;0;0;0;
22;26;40;4;0;0;0;0;0;
22;26;40;4;0;0;0;0;0;
22;26;40;4;0;0;0;0;0;
22;26;40;4;0;0;0;0;0;
22;26;40;4;0;0;0;0;0;
30;34;40;3;0;0;0;0;0;
30;34;40;3;0;0;0;0;0;
30;34;40;3;0;0;0;0;0;
30;34;40;3;0;0;0;0;0;
30;34;40;3;0;0;0;0;0;
30;34;40;3;0;0;0;0;0;
30;34;40;3;0;0;100;0;0;
30;34;40;3;0;0;100;0;0;
22;24;34;3;0;0;100;0;0;
22;24;34;3;0;0;100;0;0;
22;24;34;3;0;0;100;0;0;
22;24;34;3;0;0;100;0;0;
22;24;34;3;0;0;100;0;0;
22;24;34;3;0;0;100;0;0;
22;24;34;3;0;0;100;0;0;
22;24;34;3;0;0;100;0;0;
22;24;34;3;0;0;100;0;0;
22;24;34;3;0;0;100;0;0;
22;24;34;3;0;0;100;0;0;
22;24;34;3;0;0;100;0;0;
22;24;34;3;0;0;100;0;0;
22;24;34;3;0;0;100;0;0;
22;24;34;3;0;0;100;0;0;
22;24;34;3;0;0;100;0;0;
22;24;34;3;0;0;100;0;0;
22;24;34;3;0;0;100;0;0;
22;24;34;3;0;0;100;0;0;
28;27;40;4;0;0;100;0;0;
28;27;40;4;0;0;100;0;0;
28;27;40;4;0;0;100;0;100;
28;27;40;4;0;0;100;0;100;
22;24;35;4;0;0;100;0;100;
22;24;35;4;0;0;100;0;100;
22;24;35;4;0;0;100;0;100;
22;24;35;4;0;0;0;0;100;
22;24;35;4;0;0;0;0;100;
22;24;35;4;0;0;0;0;100;
28;26;34;3;0;0;0;0;100;
28;26;34;3;0;0;0;0;100;
28;26;34;3;0;0;0;0;100;
28;26;34;3;0;0;0;0;100;
28;26;34;3;0;0;0;0;100;
28;26;34;3;0;0;0;0;100;
28;26;34;3;0;0;0;0;100;
28;26;34;3;0;0;0;0;100;
28;26;34;3;0;0;0;0;100;
28;26;34;3;0;0;0;0;100;
28;32;42;4;0;0;0;0;100;
28;32;42;4;0;0;0;0;100;
28;32;42;4;0;0;0;0;100;
28;32;42;4;0;0;0;0;100;
28;32;42;4;0;0;0;0;100;
28;32;42;4;0;0;0;100;100;
28;32;42;4;0;0;0;100;100;
28;32;42;4;0;0;0;100;100;
28;32;42;4;0;0;0;100;100;
28;32;42;4;0;0;0;100;100;
28;32;42;4;0;0;0;100;100;
28;32;42;4;0;0;0;100;100;
28;32;42;4;0;0;0;100;100;
28;32;42;4;0;0;0;100;100;
28;32;42;4;0;0;0;100;100;
28;32;42;4;0;0;0;100;100;
28;32;42;4;0;0;0;100;100;
28;32;42;4;0;0;0;100;100;
28;32;42;4;0;0;0;100;100;
28;32;42;4;0;0;0;100;100;
28;32;42;4;0;0;0;100;100;
28;32;42;4;0;0;0;100;100;
28;32;42;4;0;0;0;0;100;
28;32;42;4;0;0;0;0;100;
28;32;42;4;0;0;0;0;100;
28;32;42;4;0;0;0;0;100;
28;32;42;4;0;0;0;0;100;
28;32;42;4;0;0;0;0;100;
28;32;42;4;0;0;0;0;100;
28;32;42;4;0;0;0;0;100;
28;32;42;4;0;0;0;0;100;
28;32;42;4;0;0;0;100;100;
28;32;42;4;0;0;0;100;100;
28;32;42;4;0;0;0;100;100;
28;32;40;4;0;0;0;100;100;
28;32;40;4;0;0;0;100;100;
28;32;40;4;0;0;0;100;100;
28;32;40;4;0;0;0;100;100;
28;32;40;4;0;0;0;100;100;
28;32;43;4;0;0;0;100;100;
28;32;43;4;0;0;0;100;100;
28;32;43;4;0;0;0;100;100;
28;32;43;4;0;0;0;100;100;
28;32;43;4;0;0;0;100;100;
30;34;42;4;0;0;0;100;100;
30;32;40;4;0;0;0;100;100;
30;32;40;4;0;0;0;100;100;
30;34;42;4;0;0;0;100;100;
30;34;42;4;0;0;0;100;100;
30;34;42;4;0;0;0;100;100;
30;34;42;4;0;0;0;100;100;
30;34;42;4;0;0;0;100;100;
30;34;42;4;0;0;0;100;100;
30;34;42;4;0;0;0;100;100;
30;34;42;4;0;0;0;0;100;
30;34;42;4;0;0;0;0;100;
30;34;42;4;0;0;0;0;100;
30;34;42;4;0;0;0;0;100;
30;34;42;4;0;0;0;0;100;
30;34;42;4;0;0;0;0;100;
30;34;42;4;0;0;0;0;100;
30;34;42;4;0;0;0;0;100;
30;34;42;4;0;0;0;0;100;
30;34;42;4;0;0;0;0;100;
30;34;42;4;0;0;0;0;100;
30;34;42;4;0;0;0;0;100;
30;34;42;4;0;0;0;0;100;
30;34;42;4;0;0;0;0;100;
30;34;42;4;0;0;0;0;100;
30;34;42;4;0;0;0;0;100;
30;34;42;4;0;0;0;0;100;
30;34;42;4;0;0;0;0;100;
30;34;42;4;0;0;0;0;100;
30;34;42;4;0;0;0;100;100;
30;34;42;4;0;0;0;100;100;
30;34;42;4;0;0;0;100;100;
30;34;42;4;0;0;0;100;100;
30;34;42;4;0;0;0;0;100;
30;34;42;4;0;0;0;0;100;
30;34;42;4;0;0;0;0;100;
30;34;42;4;0;0;0;0;100;
30;34;42;4;0;0;0;0;100;
30;34;42;4;0;0;0;0;100;
30;34;42;4;0;0;0;0;100;
30;34;42;4;0;0;100;0;100;
30;34;42;4;0;0;100;0;100;
30;34;42;4;0;0;0;0;100;
30;34;42;4;0;0;0;0;100;
30;34;42;4;0;0;0;0;100;
30;34;42;4;0;0;0;0;100;
30;34;42;4;0;0;0;0;100;
30;34;42;4;0;0;0;0;100;
30;34;42;4;0;0;0;0;100;
30;34;42;4;0;0;0;0;100;
30;34;42;4;0;0;0;0;100;
30;34;42;4;0;0;0;0;100;
30;34;42;4;0;0;0;0;100;
30;34;42;4;0;0;0;100;100;
30;34;42;4;0;0;0;100;100;
30;34;42;4;0;0;0;100;100;
30;34;42;4;0;0;0;100;100;
30;34;42;4;0;0;0;100;100;
30;34;42;4;0;0;0;100;100;
30;34;42;4;0;0;0;100;100;
30;34;42;4;0;0;0;100;100;
30;34;42;4;0;0;0;0;100;
30;34;42;4;0;0;0;0;100;
30;34;42;4;0;0;0;0;100;
30;34;42;4;0;0;0;0;100;
30;34;42;4;0;0;0;0;100;
30;34;42;4;0;0;0;0;100;
30;34;42;4;0;0;0;0;100;
30;34;42;4;0;0;0;0;100;
30;34;42;4;0;0;0;0;100;
30;34;42;4;0;0;0;0;100;
30;34;42;4;0;0;0;0;100;
30;34;42;4;0;0;0;0;100;
30;34;42;4;0;0;0;0;100;
30;34;42;4;100;0;0;0;100;
30;34;42;4;0;0;0;0;100;
30;34;42;4;0;0;0;0;100;
30;34;42;4;0;0;0;0;100;
30;34;42;4;0;0;0;0;100;
30;34;42;4;0;0;0;0;100;
30;34;42;4;0;0;0;0;100;
30;34;42;4;0;0;0;100;100;
30;34;42;4;0;0;0;100;100;
30;34;42;4;0;0;0;100;100;
30;34;42;4;0;0;0;100;100;
30;34;42;4;0;0;0;100;100;
30;34;42;4;0;0;0;100;100;
30;34;42;4;0;0;0;100;100;
30;34;42;4;0;0;0;0;100;
30;34;42;4;0;0;0;0;100;
30;34;42;4;0;0;0;0;100;
30;34;42;4;0;0;0;0;100;
30;34;42;4;0;0;0;0;100;
30;34;42;4;0;0;0;0;100;
30;34;42;4;0;0;0;0;100;
30;34;42;4;0;0;0;0;100;
30;34;42;4;0;0;0;0;100;
30;34;42;4;0;0;0;0;100;
30;34;42;4;0;0;0;0;100;
30;34;42;4;0;0;0;0;100;
30;34;42;4;0;0;0;0;100;
30;34;42;4;0;0;0;0;100;
30;34;42;4;0;0;0;0;100;
30;34;42;4;0;0;0;0;100;
30;34;42;4;0;0;0;0;100;
28;32;46;5;0;0;0;0;100;
28;32;46;5;0;0;0;0;100;
28;32;46;5;0;0;0;0;100;
28;32;46;5;0;0;0;0;100;
28;32;46;5;0;0;0;0;100;
28;32;46;5;0;0;0;0;100;
28;32;46;5;0;0;0;0;100;
28;32;46;5;0;0;0;0;100;
28;32;46;5;0;0;0;0;100;
28;32;46;5;0;0;0;0;100;
28;32;46;5;0;0;0;0;100;
28;32;46;5;0;0;100;0;100;
28;32;46;5;0;0;100;0;100;
28;32;46;5;0;0;0;0;100;
28;32;46;5;0;0;0;0;100;
28;32;46;5;0;0;0;0;100;
28;32;46;5;0;0;0;0;100;
28;32;46;5;0;0;0;0;100;
28;32;46;5;0;0;0;0;100;
28;32;46;5;0;0;0;0;100;
28;32;43;5;0;0;0;0;100;
28;32;43;5;0;0;0;0;100;
28;32;43;5;0;0;0;0;100;
28;32;43;5;0;0;0;0;100;
28;32;43;5;0;0;0;0;100;
28;32;43;5;0;0;0;0;100;
28;32;43;5;0;0;0;0;100;
28;32;43;5;0;0;0;0;100;
28;32;43;5;0;0;0;0;100;
28;32;43;5;0;0;0;0;100;
28;32;43;5;0;0;0;0;100;
28;32;43;5;0;0;100;0;100;
32;32;42;5;0;0;100;0;100;
32;32;42;5;0;0;100;0;100;
32;32;42;5;0;0;100;0;100;
32;32;42;5;0;0;0;0;100;
32;32;42;5;0;0;0;0;100;
32;32;42;5;0;0;0;0;100;
32;32;42;5;0;0;0;0;100;
32;32;42;5;0;0;0;0;100;
32;32;42;5;0;0;0;0;100;
32;32;42;5;0;0;0;0;100;
32;32;42;5;0;0;0;0;100;
32;32;42;5;0;0;0;0;100;
32;32;42;5;0;0;0;0;100;
32;32;42;5;0;0;0;0;100;
32;32;42;5;0;0;0;0;100;
32;32;42;5;0;0;0;0;100;
28;32;46;5;0;0;0;0;100;
28;32;46;5;0;0;0;0;100;
28;32;46;5;0;0;0;0;100;
28;32;46;5;0;0;0;100;100;
28;32;46;5;0;0;0;100;100;
28;32;46;5;0;0;0;100;100;
28;32;46;5;0;0;0;100;100;
28;32;46;5;0;0;0;100;100;
28;32;46;5;0;0;0;100;100;
28;32;46;5;0;0;0;100;100;
28;32;46;5;0;0;0;100;100;
28;32;46;5;0;0;0;0;100;
28;32;46;5;0;0;0;0;100;
28;32;46;5;0;0;0;0;100;
28;32;46;5;0;0;0;0;100;
28;32;46;5;0;0;0;0;100;
28;32;46;5;0;0;0;0;100;
28;32;43;5;0;0;0;0;100;
28;32;43;5;0;0;0;0;100;
28;32;43;5;0;0;0;0;100;
28;32;43;5;0;0;0;0;100;
28;32;43;5;0;0;0;0;100;
36;41;50;5;0;0;0;0;100;
28;34;47;5;0;0;0;0;100;
28;34;47;5;0;0;0;0;100;
28;34;47;5;100;0;0;0;100;
30;35;50;5;100;0;0;0;100;
28;32;47;5;100;0;0;0;100;
28;32;47;5;0;0;0;0;100;
28;32;47;5;0;0;0;0;100;
28;32;47;5;0;0;0;0;100;
28;32;47;5;0;0;0;100;100;
28;32;47;5;0;0;0;100;100;
30;35;47;5;0;0;0;100;100;
32;35;47;5;0;0;0;100;100;
32;35;47;5;0;0;0;100;100;
32;35;47;5;0;0;0;100;100;
30;35;46;5;0;0;0;100;100;
30;35;46;5;0;0;0;0;100;
30;35;46;5;0;0;0;0;100;
30;35;46;5;0;0;0;0;100;
28;35;47;5;0;0;0;0;100;
28;35;47;5;0;0;0;0;100;
28;35;47;5;0;0;0;0;100;
28;35;47;5;0;0;0;0;100;
28;35;47;5;0;0;0;0;100;
28;35;47;5;0;0;0;0;100;
28;35;47;5;0;0;0;0;100;
28;35;47;5;0;0;0;0;100;
28;35;47;5;0;0;0;0;100;
28;35;47;5;0;0;0;0;100;
28;35;47;5;0;0;0;0;100;
28;35;47;5;0;0;0;0;100;
28;35;47;5;0;0;0;0;100;
28;35;47;5;0;0;0;0;100;
28;34;47;5;0;0;0;0;100;
28;34;47;5;0;0;0;0;100;
28;34;47;5;0;0;0;0;100;
28;34;47;5;0;0;0;0;100;
28;34;47;5;0;0;100;0;100;
28;34;47;5;0;0;100;0;100;
28;34;47;5;0;0;100;0;100;
28;34;47;5;0;0;100;0;100;
28;34;47;5;0;0;100;0;100;
28;34;47;5;0;0;100;0;100;
30;32;42;5;0;0;100;0;100;
30;32;42;5;0;0;0;0;100;
30;32;42;5;0;0;0;0;100;
30;32;42;5;0;0;0;0;100;
30;32;42;5;0;0;0;0;100;
30;32;42;5;0;0;0;0;100;
30;32;42;5;0;0;0;0;100;
30;32;42;5;0;0;0;0;100;
30;32;42;4;0;0;0;0;100;
30;32;42;4;0;0;0;0;100;
30;32;42;4;0;0;0;0;100;
30;32;42;4;0;0;0;0;100;
30;32;42;4;0;0;0;0;100;
30;32;42;4;0;0;0;0;100;
30;32;42;4;0;0;0;0;100;
30;32;42;4;0;0;0;0;100;
30;32;42;4;0;0;0;100;100;
30;32;42;4;0;0;0;100;100;
30;32;42;4;0;0;0;100;100;
30;32;42;4;0;0;0;100;100;
30;34;43;4;0;0;0;100;100;
30;34;43;4;0;0;0;0;100;
30;34;43;4;0;0;0;0;100;
30;34;43;4;0;0;0;0;100;
30;34;43;4;0;0;0;0;100;
30;34;43;4;0;0;0;0;100;
30;34;43;4;0;0;0;0;100;
30;32;40;4;0;0;0;0;100;
30;32;40;4;0;0;0;0;100;
30;32;40;4;0;0;0;0;100;
30;32;40;4;0;0;0;0;100;
30;32;40;4;0;0;0;0;100;
30;32;40;4;0;0;0;0;100;
30;32;40;4;0;0;0;0;100;
30;32;40;4;0;0;0;0;100;
30;32;40;4;0;0;0;0;100;
30;32;40;4;0;0;0;0;100;
30;32;40;4;0;0;0;0;100;
30;32;40;4;0;0;0;0;100;
30;34;42;4;0;0;0;0;100;
30;34;42;4;0;0;0;0;100;
30;34;42;4;0;0;0;0;100;
30;34;42;4;0;0;0;0;100;
30;32;42;4;0;0;0;0;100;
30;32;42;4;0;0;0;0;100;
30;32;42;4;0;0;0;0;100;
30;32;42;4;0;0;0;0;100;
30;32;42;4;0;0;0;0;100;
30;32;42;4;0;0;0;0;100;
30;32;42;4;0;0;0;0;100;
30;32;42;4;0;0;0;100;100;
30;32;42;4;0;0;0;100;100;
30;32;42;4;0;0;0;100;100;
30;32;42;4;0;0;0;100;100;
30;32;42;4;0;0;0;100;100;
30;32;42;4;0;0;0;100;100;
30;32;42;4;0;0;0;100;100;
30;32;42;4;0;0;0;100;100;
30;32;42;4;0;0;0;100;100;
30;32;42;4;0;0;0;0;100;
30;32;42;4;0;0;0;0;100;
30;32;42;4;0;0;0;0;100;
30;32;42;4;0;0;0;0;100;
30;32;42;4;0;0;0;0;100;
28;33;42;4;0;0;0;0;100;
28;33;42;4;0;0;0;0;100;
28;33;42;4;0;0;0;0;100;
28;32;42;4;0;0;0;0;100;
28;32;42;4;0;0;0;0;100;
28;32;42;4;0;0;0;0;100;
28;32;42;4;0;0;0;0;100;
22;24;34;4;0;0;0;0;100;
22;24;34;4;0;0;0;0;100;
22;24;34;4;0;0;0;0;100;
22;24;34;4;0;0;0;0;100;
22;24;34;4;0;0;0;0;100;
22;24;34;4;0;0;0;0;100;
22;24;34;4;0;0;0;0;100;
22;24;34;4;0;0;0;0;100;
22;19;30;3;0;0;0;0;100;
22;19;30;3;0;0;0;0;100;
22;19;30;3;0;0;0;0;100;
22;19;30;3;0;0;0;0;100;
22;19;30;3;0;0;0;0;100;
22;19;30;3;0;0;0;0;100;
22;19;30;3;0;0;0;0;100;
22;19;30;3;0;0;100;0;100;
22;19;30;3;0;0;100;0;100;
22;19;30;3;0;0;100;0;100;
22;19;30;3;0;0;100;0;100;
22;19;30;3;0;0;100;0;100;
30;32;34;3;0;0;100;0;100;
30;32;34;3;0;0;100;0;100;
30;32;34;3;0;0;100;0;100;
30;32;34;3;0;0;0;0;100;
30;32;34;3;0;0;0;0;100;
30;32;34;3;0;0;0;0;100;
30;32;34;3;0;0;0;0;100;
30;32;34;3;0;0;0;0;100;
30;32;34;3;0;0;0;0;100;
30;32;34;3;0;0;0;0;100;
30;32;34;3;0;0;0;0;100;
30;32;34;3;0;0;0;0;100;
30;32;34;3;0;0;0;0;100;
30;32;34;3;0;0;0;0;100;
30;32;34;3;0;0;0;0;100;
30;32;34;3;0;0;0;0;100;
30;32;34;3;0;0;0;0;100;
30;32;34;3;0;0;0;0;100;
30;32;34;3;0;0;0;0;100;
30;32;34;3;0;0;0;0;100;
30;32;34;3;0;0;0;0;100;
30;32;34;3;0;0;0;0;100;
30;32;34;3;0;0;0;0;100;
30;32;34;3;0;0;0;0;100;
30;32;34;3;0;0;0;0;100;
30;32;34;3;0;0;0;0;100;
30;32;34;3;0;0;0;0;100;
30;32;34;3;0;0;0;0;100;
30;32;34;3;0;0;0;0;100;
28;32;35;3;0;0;0;0;100;
28;32;40;4;0;0;0;0;100;
28;32;40;4;0;0;0;0;100;
28;32;40;4;0;0;0;0;100;
28;32;40;4;0;0;0;0;100;
28;32;40;4;0;0;0;0;100;
28;32;40;4;0;0;0;0;100;
28;32;40;4;0;0;0;0;100;
28;32;40;4;0;0;0;0;100;
28;32;40;4;0;0;0;0;100;
28;32;40;4;0;0;0;0;100;
28;32;40;4;0;0;0;0;100;
28;32;40;4;0;0;0;0;100;
28;32;40;4;0;0;0;0;100;
28;32;40;4;0;0;0;0;100;
28;32;38;4;0;0;0;0;100;
28;32;38;4;0;0;0;0;100;
28;32;38;4;0;0;0;0;100;
28;32;38;4;0;0;0;0;100;
22;22;34;4;0;0;0;0;100;
22;22;34;4;0;0;0;0;100;
22;22;34;4;0;0;0;0;100;
22;22;34;4;0;0;0;0;100;
22;22;34;4;0;0;0;0;100;
22;22;34;4;0;0;0;0;100;
22;22;34;4;0;0;0;0;100;
30;32;40;4;0;0;0;0;100;
28;32;42;4;0;0;0;0;100;
28;32;42;4;0;0;0;0;100;
30;32;42;4;0;0;0;0;100;
28;32;42;5;0;0;0;0;100;
30;32;42;4;0;0;0;0;100;
28;32;43;5;0;0;0;0;100;
28;32;43;5;0;100;0;0;100;
28;32;43;5;0;0;0;0;100;
36;35;42;4;0;0;0;0;100;
36;35;42;4;0;0;0;0;100;
36;35;42;4;0;0;100;0;100;
36;35;42;4;0;0;100;0;100;
36;35;42;4;0;0;0;0;100;
28;32;46;5;0;0;0;0;100;
28;32;46;5;0;0;0;0;100;
28;32;46;5;0;0;0;0;100;
30;35;47;5;0;0;0;0;100;
28;34;47;5;0;0;0;0;100;
28;34;47;5;0;100;0;0;100;
36;38;46;5;0;100;0;0;100;
36;38;46;5;0;100;0;0;100;
36;38;46;5;0;100;0;0;100;
36;38;46;5;0;100;0;0;100;
36;38;46;5;0;100;0;0;100;
36;38;46;5;0;100;0;0;100;
36;38;46;5;0;100;0;0;100;
36;38;46;5;0;100;0;0;100;
36;38;46;5;0;100;0;0;100;
36;38;46;5;0;0;0;0;100;
36;38;46;5;0;0;0;0;100;
36;38;46;5;0;0;0;0;100;
36;38;46;5;0;0;0;0;100;
36;38;46;5;0;0;0;0;100;
30;35;47;5;0;0;0;0;100;
30;35;47;5;0;0;0;0;100;
30;35;47;5;0;0;0;0;100;
30;35;47;5;0;0;0;0;100;
30;35;47;5;0;0;0;0;100;
30;35;47;5;0;0;0;0;100;
30;35;47;5;0;0;0;0;100;
30;35;47;5;0;0;0;0;100;
30;35;47;5;0;0;0;0;100;
30;35;47;5;0;0;0;0;100;
30;34;46;5;0;0;0;0;100;
30;34;46;5;0;0;0;0;100;
30;34;46;5;0;0;0;0;100;
30;34;46;5;0;0;0;0;100;
30;34;46;5;0;0;0;0;100;
30;34;46;5;0;0;0;0;100;
30;34;46;5;0;0;0;0;100;
30;34;46;5;0;0;0;0;100;
30;34;46;5;0;0;0;0;100;
30;34;46;5;0;0;0;0;100;
30;34;46;5;0;0;0;0;100;
30;34;46;5;0;0;0;0;100;
30;34;46;5;0;0;0;0;100;
30;34;46;5;0;0;0;0;100;
30;34;46;5;0;0;0;0;100;
30;34;46;5;0;0;0;0;100;
30;34;43;5;0;0;0;0;100;
30;34;43;5;0;0;0;0;100;
30;34;43;5;0;0;0;0;100;
30;34;43;5;0;0;0;0;100;
30;34;43;5;0;0;0;0;100;
28;32;46;5;0;0;0;0;100;
28;32;46;5;0;0;0;0;100;
28;32;46;5;0;0;0;0;100;
28;32;46;5;0;0;0;0;100;
28;32;46;5;0;0;0;0;100;
28;32;46;5;0;0;0;0;100;
28;32;46;5;0;0;0;0;100;
28;32;42;5;0;0;0;0;100;
28;32;42;5;0;0;0;0;100;
28;32;42;5;0;0;0;0;100;
28;32;42;5;0;0;0;0;100;
30;32;42;5;0;0;0;0;100;
30;32;42;5;0;0;0;0;100;
30;32;42;5;0;0;0;0;100;
30;32;42;5;0;0;0;0;100;
30;32;42;5;0;0;0;0;100;
30;32;42;5;0;0;0;0;100;
30;32;42;5;0;0;0;0;100;
30;32;42;5;0;0;0;0;100;
30;32;42;5;0;0;0;0;100;
28;32;42;5;0;0;0;0;100;
28;32;42;5;0;0;0;0;100;
28;32;42;5;0;0;0;0;100;
28;32;42;5;0;0;0;0;100;
28;32;42;5;0;0;0;0;100;
28;32;42;5;0;0;0;0;100;
28;32;42;5;0;0;0;0;100;
28;32;42;5;0;0;0;0;100;
28;32;42;5;0;0;0;0;100;
28;32;42;5;0;0;0;0;100;
28;32;42;5;0;0;0;0;100;
30;32;42;4;0;0;0;0;100;
30;32;42;4;0;0;0;0;100;
30;32;42;4;0;0;0;0;100;
30;32;42;4;0;0;0;0;100;
30;32;42;4;0;0;0;0;100;
30;32;42;4;0;0;0;0;100;
30;32;42;4;0;0;0;0;100;
30;32;42;4;0;0;0;0;100;
30;32;42;4;0;0;0;0;100;
30;32;42;4;0;0;0;0;100;
28;32;42;4;0;0;0;0;100;
28;32;42;4;0;0;0;0;100;
28;32;42;4;0;0;0;0;100;
28;32;42;4;0;0;0;0;100;
28;32;42;4;0;0;0;0;100;
28;32;42;4;0;0;0;0;100;
28;32;42;4;0;0;0;0;100;
28;32;42;4;0;0;0;0;100;
28;32;42;4;0;0;0;0;100;
28;32;42;4;0;0;0;0;100;
28;32;42;4;0;0;0;0;100;
28;32;42;4;0;0;0;0;100;
28;32;42;4;0;0;0;0;100;
28;32;42;4;0;0;0;0;100;
30;32;42;4;0;0;0;0;100;
30;32;42;4;0;0;0;0;100;
30;32;42;4;0;0;0;0;100;
30;32;42;4;0;0;0;0;100;
28;32;42;4;0;0;0;0;100;
30;32;40;4;0;0;0;0;100;
30;32;40;4;0;0;0;0;100;
28;32;40;4;0;0;0;0;100;
28;32;40;4;0;0;0;0;100;
22;24;34;4;0;0;0;0;100;
22;24;34;4;0;0;0;0;100;
22;26;40;4;0;0;0;0;100;
22;26;40;4;0;0;0;0;100;
22;26;40;4;0;0;0;0;100;
22;26;40;4;0;0;0;0;100;
28;24;34;3;0;0;0;0;100;
28;24;34;3;0;0;0;0;100;
28;24;34;3;0;0;0;0;100;
28;26;34;3;0;0;0;0;100;
28;26;34;3;0;0;0;0;100;
28;26;34;3;0;0;0;0;100;
28;26;34;3;0;0;0;0;100;
28;26;34;3;0;0;0;0;100;
28;26;34;3;0;0;0;0;100;
28;26;34;3;0;0;0;0;100;
28;26;34;3;0;0;0;0;100;
30;32;34;3;0;0;0;0;100;
28;32;42;4;0;0;0;0;100;
28;32;42;4;0;0;0;0;100;
28;32;42;4;0;0;0;0;100;
30;32;34;3;0;0;0;0;100;
30;32;34;3;0;0;0;0;100;
28;32;42;4;0;0;0;0;100;
28;32;42;4;0;0;0;0;100;
28;32;42;4;0;0;0;0;100;
30;32;42;4;0;0;0;0;100;
30;32;42;4;0;0;0;0;100;
28;32;42;5;0;0;0;0;100;
28;32;42;5;0;0;0;0;100;
30;35;46;5;0;0;0;0;100;
30;35;46;5;0;0;0;0;100;
30;35;46;5;0;0;0;0;100;
30;35;46;5;0;0;0;0;100;
30;35;46;5;0;0;0;0;100;
30;35;46;5;0;0;0;0;100;
34;35;46;5;0;0;0;0;100;
34;35;46;5;0;0;0;0;100;
34;35;46;5;0;0;0;0;100;
34;35;46;5;0;0;0;0;100;
34;35;46;5;0;0;0;0;100;
34;35;46;5;0;0;0;0;100;
34;35;46;5;0;0;0;0;100;
30;35;46;5;0;0;0;0;100;
30;35;46;5;0;0;0;0;100;
30;35;46;5;0;0;0;0;100;
36;35;43;5;0;0;0;0;100;
30;34;46;5;0;0;0;0;100;
30;34;46;5;0;0;0;0;100;
30;34;46;5;0;0;0;0;100;
30;34;46;5;0;0;0;0;100;
36;35;46;5;0;0;0;0;100;
30;35;47;5;0;0;0;0;100;
30;35;47;5;0;0;0;0;100;
30;35;47;5;0;0;0;0;100;
30;32;42;5;0;0;0;0;100;
30;32;42;5;0;0;0;0;100;
30;32;42;5;0;0;0;0;100;
28;32;46;5;0;0;0;0;100;
28;32;46;5;0;0;0;0;100;
30;34;43;4;0;0;0;0;100;
28;32;42;5;0;0;0;0;100;
28;32;42;5;0;0;0;0;100;
28;34;43;5;0;0;0;0;100;
28;34;43;5;0;0;0;0;100;
28;32;42;5;0;0;0;0;100;
28;32;42;5;0;0;0;0;100;
28;32;42;5;0;0;0;0;100;
28;32;42;5;0;0;0;0;100;
28;32;40;4;0;0;0;0;100;
28;32;42;4;0;0;0;0;100;
28;32;42;4;0;0;0;0;100;
28;32;42;4;0;0;0;0;100;
28;32;40;4;0;0;0;0;100;
28;32;40;4;0;0;0;0;100;
28;32;40;4;0;0;0;0;100;
28;32;40;4;0;0;0;0;100;
28;32;40;4;0;0;0;0;100;
28;32;40;4;0;0;0;0;100;
28;32;42;4;0;0;0;0;100;
28;32;42;4;0;0;0;0;100;
30;32;40;4;0;0;0;0;100;
30;32;40;4;0;0;0;0;100;
30;32;40;4;0;0;0;0;100;
28;32;42;4;0;0;0;0;100;
28;32;42;4;0;0;0;0;100;
28;32;42;4;0;0;0;0;100;
28;32;35;4;0;0;0;0;100;
28;32;35;4;0;0;0;0;100;
28;32;35;4;0;0;0;0;100;
28;32;42;4;0;0;0;0;100;
28;32;42;4;0;0;0;0;100;
28;32;42;4;0;0;0;0;100;
28;32;42;4;0;0;0;0;100;
28;32;42;4;0;0;0;0;100;
28;32;42;4;0;0;0;0;100;
28;32;42;4;0;0;0;0;100;
28;32;42;4;0;0;0;0;100;
28;32;42;4;0;0;0;0;100;
28;32;40;4;0;0;0;0;100;
28;32;42;4;0;0;0;0;100;
28;32;42;4;0;0;0;0;100;
28;32;42;4;0;0;0;0;100;
28;32;42;4;0;0;0;0;100;
28;32;42;4;0;0;0;0;100;
30;34;42;4;0;0;0;0;100;
30;35;43;4;0;0;0;0;100;
28;32;46;5;0;0;0;0;100;
30;34;43;5;0;0;0;0;100;
36;35;42;4;0;0;0;0;100;
30;35;47;5;0;0;0;0;100;
30;35;46;5;0;0;0;0;100;
36;35;46;5;0;0;0;0;100;
30;34;46;5;0;0;0;0;100;
30;32;43;5;0;0;0;0;100;
36;38;46;5;0;0;0;0;100;
30;35;46;5;0;0;0;0;100;
28;32;46;5;0;0;0;0;100;
30;34;46;5;0;0;0;0;100;
28;32;43;5;0;0;0;0;100;
30;32;42;5;0;0;0;0;100;
28;32;42;5;0;0;0;0;100;
30;32;42;4;0;0;0;0;100;
22;24;40;5;0;0;0;0;100;
28;32;35;4;0;0;0;0;100;
28;26;34;3;0;0;0;0;100;
28;24;34;3;0;0;0;0;100;
28;24;34;3;0;0;0;0;100;
28;32;34;3;0;0;0;0;100;
28;32;34;3;0;0;0;0;100;
28;32;40;3;0;0;0;0;100;
28;32;42;4;0;0;0;0;100;
28;32;35;4;0;0;0;0;100;
28;32;40;4;0;0;0;0;100;
22;24;34;4;0;0;0;0;100;
28;26;34;3;0;0;0;0;100;
28;32;40;4;0;0;0;0;100;
30;32;42;4;0;0;0;0;100;
30;32;40;4;0;0;0;0;100;
30;34;42;4;0;0;0;0;100;
30;32;42;5;0;0;0;0;100;
30;35;43;5;0;0;0;0;100;
30;34;43;5;0;0;0;0;100;
30;34;46;5;0;0;0;0;100;
28;32;46;5;0;0;0;0;100;
32;34;46;5;0;0;0;0;100;
30;34;46;5;0;0;0;0;100;
28;32;46;5;0;0;0;0;100;
30;34;46;5;0;0;0;0;100;
28;32;46;5;0;0;0;0;100;
36;39;47;5;0;0;0;0;100;
30;35;46;5;0;0;0;0;100;
32;34;46;5;0;0;0;0;100;
30;34;47;5;0;0;0;0;100;
28;32;42;5;0;0;0;0;100;
30;35;43;4;0;0;0;0;100;
30;32;42;4;0;0;0;0;100;
28;32;42;4;0;0;0;0;100;
28;32;42;4;0;0;0;0;100;
30;32;40;4;0;0;0;0;100;
28;32;42;4;0;0;0;0;100;
30;32;40;4;0;0;0;0;100;
30;32;40;4;0;0;0;0;100;
22;24;34;4;0;0;0;0;100;
28;32;34;3;0;0;0;0;100;
28;32;42;4;0;0;0;0;100;
28;32;42;4;0;0;0;0;100;
28;26;35;4;0;0;0;0;100;
23;32;42;4;0;0;0;0;100;
31;34;42;4;0;0;0;0;100;
30;32;42;4;0;0;0;0;100;
36;35;42;4;0;0;0;0;100;
28;32;42;5;0;0;0;0;100;
30;34;42;5;0;0;0;0;100;
30;35;47;5;0;0;0;0;100;
30;34;43;5;0;0;0;0;100;
34;38;47;5;0;0;0;0;100;
30;35;47;5;0;0;0;0;100;
30;35;47;5;0;0;0;0;100;
28;32;46;5;0;0;0;0;100;
30;35;47;5;0;0;0;0;100;
32;34;46;5;0;0;0;0;100;
32;32;42;5;0;0;0;0;100;
28;32;46;5;0;0;0;0;100;
30;35;47;5;0;0;0;0;100;
30;32;42;5;0;0;0;0;100;
28;32;42;5;0;0;0;0;100;
28;34;46;5;0;0;0;0;100;
28;32;42;4;0;0;0;0;100;
28;32;42;4;0;0;0;0;100;
28;32;40;4;0;0;0;0;100;
28;32;42;4;0;0;0;0;100;
28;32;40;4;0;0;0;0;100;
28;24;34;3;0;0;0;0;100;
28;32;35;3;0;0;0;0;100;
22;24;34;3;0;0;0;0;100;
28;26;35;3;0;0;0;0;100;
28;32;34;3;0;0;0;0;100;
28;32;34;3;0;0;0;0;100;
28;32;40;4;0;0;0;0;100;
28;32;34;3;0;0;0;0;100;
28;32;40;4;0;0;0;0;100;
28;34;42;4;0;0;0;0;100;
30;33;42;4;0;0;0;0;100;
28;32;42;4;0;0;0;0;100;
28;32;42;4;0;0;0;0;100;
28;32;43;5;0;0;0;0;100;
30;34;42;4;0;0;0;0;100;
36;35;42;5;0;0;0;0;100;
28;32;42;5;0;0;0;0;100;
30;35;46;5;0;0;0;0;100;
30;34;46;5;0;0;0;0;100;
28;34;46;5;0;0;0;0;100;
32;35;46;5;0;0;0;0;100;
34;39;50;5;0;0;0;0;100;
30;34;46;5;0;0;0;0;100;
32;32;42;5;0;0;0;0;100;
30;35;47;5;0;0;0;0;100;
30;34;46;5;0;0;0;0;100;
30;34;46;5;0;0;0;0;100;
28;32;42;5;0;0;0;0;100;
28;32;42;5;0;0;0;0;100;
22;24;42;5;0;0;0;0;100;
28;32;42;4;0;0;0;0;100;
28;32;42;4;0;0;0;0;100;
28;32;42;5;0;0;0;0;100;
28;32;42;5;0;0;0;0;100;
30;32;42;4;0;0;0;0;100;
30;32;42;4;0;0;0;0;100;
30;32;42;4;0;0;0;0;100;
30;32;42;4;0;0;0;0;100;
30;32;42;4;0;0;0;0;100;
30;32;42;4;0;0;0;0;100;
28;32;42;4;0;0;0;0;100;
28;32;42;4;0;0;0;0;100;
28;32;40;4;0;0;0;0;100;
28;32;34;4;0;0;0;0;100;
28;32;34;4;0;0;0;0;100;
28;32;34;4;0;0;0;0;100;
28;32;40;4;0;0;0;0;100;
28;32;42;4;0;0;0;0;100;
28;32;42;4;0;0;0;0;100;
28;32;42;4;0;0;0;0;100;
28;24;34;4;0;0;0;0;100;
28;32;34;3;0;0;0;0;100;
28;32;40;3;0;0;0;0;100;
28;32;40;3;0;0;0;0;100;
28;32;42;4;0;0;0;0;100;
28;32;42;4;0;0;0;0;100;
28;32;42;4;0;0;0;0;100;
28;32;42;4;0;0;0;0;100;
28;32;42;4;0;0;0;0;100;
28;32;42;4;0;0;0;0;100;
28;32;42;4;0;0;0;0;100;
28;32;42;4;0;0;0;0;100;
28;32;42;4;0;0;0;0;100;
28;32;42;4;0;0;0;0;100;
28;32;42;4;0;0;0;0;100;
28;32;42;4;0;0;0;0;100;
28;32;42;4;0;0;0;0;100;
28;32;42;4;0;0;0;0;100;
28;32;42;4;0;0;0;0;100;
28;32;42;4;0;0;0;0;100;
28;32;42;4;0;0;0;0;100;
28;32;42;4;0;0;0;0;100;
28;32;42;4;0;0;0;0;100;
28;32;42;4;0;0;0;0;100;
28;32;42;4;0;0;0;0;100;
28;32;42;4;0;0;0;0;100;
28;32;42;4;0;0;0;0;100;
28;32;42;4;0;0;0;0;100;
28;32;42;4;0;0;0;0;100;
28;32;42;4;0;0;0;0;100;
28;32;42;4;0;0;0;0;100;
28;32;42;4;0;0;0;0;100;
28;32;42;4;0;0;0;0;100;
28;32;42;4;0;0;0;0;100;
30;34;42;4;0;0;0;0;100;
30;34;42;4;0;0;0;0;100;
30;34;42;4;0;0;0;0;100;
30;34;42;4;0;0;0;0;100;
28;32;42;5;0;0;0;0;100;
28;32;42;5;0;0;0;0;100;
28;32;42;5;0;0;0;0;100;
28;32;42;5;0;0;0;0;100;
30;32;42;5;0;0;0;0;100;
30;32;42;5;0;0;0;0;100;
30;32;42;5;0;0;0;0;100;
30;32;42;5;0;0;0;0;100;
30;32;42;5;0;0;0;0;100;
30;32;42;5;0;0;0;0;100;
30;32;42;5;0;0;0;0;100;
30;32;42;5;0;0;0;0;100;
30;32;42;5;0;0;0;0;100;
30;32;42;5;0;0;0;0;100;
30;32;42;5;0;0;0;0;100;
28;32;42;5;0;0;0;0;100;
28;32;42;5;0;0;0;0;100;
30;34;46;5;0;0;0;0;100;
30;35;46;5;0;0;0;0;100;
30;35;46;5;0;0;0;100;100;
28;32;46;5;0;0;0;100;100;
30;38;47;5;0;0;0;100;100;
30;38;47;5;0;0;0;0;100;
30;35;47;5;0;0;0;0;100;
30;35;47;5;0;0;100;0;100;
28;32;46;5;0;0;100;0;100;
28;32;46;5;100;0;100;0;100;
30;35;47;5;100;0;100;0;100;
30;35;47;5;100;0;0;0;100;
30;35;47;5;0;0;0;0;100;
30;35;47;5;0;0;0;0;100;
30;32;42;5;0;0;0;0;100;
30;32;42;5;0;100;0;0;100;
30;32;42;5;0;0;0;0;100;
30;32;42;5;0;0;100;0;100;
30;32;42;5;0;0;100;0;100;
30;32;42;5;0;0;0;0;100;
30;32;42;5;0;0;0;100;100;
30;35;46;5;0;0;0;100;100;
30;35;46;5;0;0;0;0;100;
30;35;46;5;100;0;0;0;100;
30;32;42;5;100;0;0;0;100;
30;32;42;5;100;0;0;100;100;
30;32;42;5;0;0;0;100;100;
30;32;42;5;0;0;0;0;100;
30;32;42;5;0;0;100;0;100;
30;32;42;5;0;0;0;0;100;
30;32;42;5;0;100;0;0;100;
30;32;42;5;0;0;0;0;100;
28;32;42;4;0;0;0;0;100;
30;34;42;4;0;0;0;0;100;
30;34;42;4;0;0;100;0;100;
30;34;42;4;0;0;100;0;100;
30;34;42;4;0;0;0;0;100;
30;34;42;4;0;0;0;0;100;
30;32;40;4;0;0;0;0;100;
28;32;42;4;0;0;0;0;100;
28;32;42;4;0;0;0;0;100;
28;32;40;4;0;0;0;0;100;
28;32;40;4;0;0;0;0;100;
28;32;40;4;0;0;0;0;100;
28;32;40;4;0;0;0;0;100;
28;32;40;3;0;0;0;0;100;
28;32;40;3;0;0;0;0;100;
28;32;40;3;0;0;0;0;100;
28;32;40;3;0;0;0;0;100;
24;32;40;4;0;0;0;0;100;
24;32;40;4;0;0;0;0;100;
24;32;40;4;0;0;0;0;100;
24;32;40;4;0;0;0;0;100;
24;32;40;4;0;0;0;0;100;
28;32;34;3;0;0;0;0;100;
28;32;34;3;0;0;0;0;100;
28;32;34;3;0;0;0;0;100;
28;32;34;3;0;0;0;0;100;
28;32;34;3;0;0;0;0;100;
30;32;40;3;0;0;0;0;100;
28;32;35;4;0;0;0;0;100;
28;32;35;4;0;0;0;0;100;
28;26;35;4;0;0;0;0;100;
28;32;34;4;0;0;0;0;100;
28;32;34;4;0;0;100;0;100;
28;32;34;4;0;0;100;0;100;
28;32;42;4;0;0;100;0;100;
28;32;42;4;0;0;100;0;100;
28;32;42;4;0;0;100;0;100;
28;32;42;4;0;0;100;0;100;
28;32;42;4;0;0;0;0;100;
30;34;42;4;0;0;0;0;100;
28;32;42;4;0;0;0;0;100;
28;32;42;4;0;0;0;0;100;
28;32;42;4;0;0;0;0;100;
28;32;42;4;0;0;0;0;100;
36;35;42;4;0;0;0;0;100;
36;35;42;4;0;0;0;0;100;
36;35;42;4;0;0;0;0;100;
36;35;42;4;0;0;0;0;100;
36;35;42;4;0;0;0;0;100;
30;34;46;5;0;0;0;0;100;
30;34;46;5;0;0;0;0;100;
30;34;46;5;0;0;0;0;100;
30;34;46;5;0;0;0;0;100;
30;34;46;5;0;0;0;0;100;
30;34;46;5;0;0;0;0;100;
30;34;46;5;0;0;0;0;100;
30;34;46;5;0;0;0;0;100;
30;34;46;5;0;0;0;0;100;
30;34;46;5;0;0;0;0;100;
30;35;46;5;0;0;0;0;100;
28;32;42;5;0;0;0;0;100;
28;32;42;5;0;0;0;0;100;
28;32;42;5;0;0;0;0;100;
28;32;42;5;0;0;0;0;100;
28;32;42;5;0;0;0;0;100;
28;32;42;5;0;0;0;0;100;
28;32;42;5;0;0;0;0;100;
28;32;42;5;0;0;0;0;100;
28;32;42;5;0;0;0;0;100;
28;32;42;5;0;0;0;0;100;
28;32;42;5;0;0;0;0;100;
28;32;42;5;0;0;0;0;100;
28;32;42;5;0;0;0;0;100;
28;32;42;5;0;0;0;0;100;
28;32;42;5;0;0;0;0;100;
28;32;42;5;0;0;0;0;100;
28;34;46;5;0;0;0;0;100;
28;34;46;5;0;0;0;0;100;
28;34;46;5;0;0;0;0;100;
28;34;46;5;0;0;100;0;100;
28;34;46;5;0;0;100;0;100;
28;34;46;5;0;0;100;0;100;
28;34;46;5;0;0;100;0;100;
28;34;46;5;0;0;100;0;100;
28;34;46;5;0;0;100;0;100;
28;34;46;5;0;0;100;0;100;
28;34;46;5;0;0;100;0;100;
28;34;46;5;0;0;100;0;100;
28;34;46;5;0;0;100;0;100;
28;34;46;5;0;0;100;100;100;
28;34;46;5;0;0;100;100;100;
36;35;46;5;0;0;100;100;100;
36;35;46;5;0;0;100;100;100;
36;35;46;5;0;0;100;100;100;
36;35;46;5;0;0;100;100;100;
36;35;46;5;0;0;100;100;100;
36;35;46;5;0;0;100;100;100;
36;35;46;5;0;0;100;100;100;
36;35;46;5;0;0;100;100;100;
36;35;46;5;0;0;100;100;100;
36;35;46;5;0;0;100;100;100;
36;35;46;5;0;0;100;100;100;
36;35;46;5;0;0;100;100;100;
36;35;46;5;0;0;100;100;100;
36;35;46;5;0;0;100;100;100;
36;35;46;5;0;0;100;100;100;
32;38;50;5;0;0;100;100;100;
32;38;50;5;0;0;100;100;100;
32;38;50;5;0;0;100;100;100;
32;38;50;5;0;0;100;100;100;
32;38;50;5;0;0;0;100;100;
32;38;50;5;0;0;0;100;100;
32;38;50;5;0;0;0;100;100;
32;38;50;5;100;0;0;100;100;
32;38;50;5;100;0;0;100;100;
30;35;47;5;100;0;0;100;100;
30;34;46;5;100;0;0;100;100;
30;34;46;5;100;0;0;100;100;
30;34;46;5;100;0;0;100;100;
30;34;46;5;100;0;0;100;100;
30;34;46;5;100;0;0;100;100;
30;32;47;5;100;0;0;100;100;
28;34;46;5;100;0;0;100;100;
28;34;46;5;100;0;0;100;100;
30;35;47;5;100;0;0;100;100;
30;35;47;5;100;0;0;0;100;
30;35;47;5;100;0;0;0;100;
30;35;47;5;0;0;0;0;100;
36;35;46;5;0;0;0;0;100;
32;34;42;5;0;0;0;0;100;
30;32;42;5;0;0;0;0;100;
30;32;42;5;0;0;0;0;100;
30;32;42;5;0;0;0;0;100;
30;32;42;5;0;0;0;0;100;
28;32;42;5;0;0;0;0;100;
28;32;43;5;0;0;0;0;100;
28;32;42;4;0;0;0;0;100;
28;32;42;4;0;0;0;0;100;
22;26;40;4;0;0;0;0;100;
22;26;40;4;0;0;0;0;100;
28;32;42;4;0;0;0;0;100;
28;26;34;4;0;0;0;0;100;
28;26;34;4;0;0;0;0;100;
28;26;34;4;0;0;0;0;100;
28;26;34;4;100;0;0;0;100;
28;32;40;4;100;0;0;0;100;
28;32;40;4;100;0;0;0;100;
28;32;40;4;100;0;0;0;100;
28;32;40;4;100;0;0;0;100;
28;32;40;4;100;0;0;0;100;
28;32;40;4;100;0;0;0;100;
28;32;40;4;100;0;0;0;100;
28;32;40;4;100;0;100;0;100;
28;32;40;4;100;0;100;0;100;
28;32;40;4;100;0;100;0;100;
28;32;40;4;100;0;100;0;100;
28;32;40;4;100;0;100;0;100;
28;32;40;4;100;0;100;0;100;
28;32;40;4;100;0;100;0;100;
28;32;40;4;100;0;100;0;100;
28;32;40;4;100;0;100;0;100;
28;32;40;4;100;0;100;0;100;
28;32;40;4;100;0;100;0;100;
28;32;40;4;100;0;100;0;100;
28;32;40;4;100;0;100;0;100;
28;32;40;4;100;0;100;0;100;
28;32;40;4;0;0;100;0;100;
28;32;40;4;0;0;100;0;100;
28;32;40;4;0;0;100;0;100;
28;32;40;4;0;0;100;0;100;
28;32;40;4;0;0;100;0;100;
28;32;40;4;0;0;100;0;100;
28;32;40;4;0;0;100;0;100;
28;32;40;4;0;0;100;0;100;
28;32;40;4;0;0;100;0;100;
28;32;40;4;0;0;100;0;100;
28;32;40;4;0;0;100;0;100;
28;32;40;4;0;0;100;0;100;
28;32;40;4;0;0;100;0;100;
28;32;40;4;0;0;100;0;100;
28;32;40;4;0;0;0;0;100;
28;32;40;4;0;0;0;0;100;
28;32;40;4;0;0;0;0;100;
28;32;40;4;0;0;0;0;100;
28;32;40;4;0;0;0;0;100;
28;32;40;4;0;0;0;0;100;
28;32;40;4;0;0;0;0;100;
30;32;34;3;0;0;0;0;100;
28;24;34;4;0;0;0;0;100;
28;24;34;4;0;0;0;0;100;
28;24;34;4;0;0;0;0;100;
28;24;34;4;100;0;0;0;100;
28;24;34;4;0;0;0;0;100;
22;26;34;3;0;0;0;0;100;
22;26;34;3;0;0;0;0;100;
22;26;34;3;0;0;0;100;100;
22;26;34;3;0;0;0;100;100;
28;27;34;3;0;0;0;100;100;
28;27;34;3;0;0;0;100;100;
28;27;34;3;0;0;0;100;100;
28;27;34;3;0;0;100;100;100;
28;27;34;3;0;0;100;100;100;
28;27;34;3;0;0;100;100;100;
28;27;34;3;0;0;100;100;100;
28;27;34;3;100;0;100;100;100;
28;27;34;3;100;0;100;100;100;
28;27;34;3;100;0;100;100;100;
30;35;42;3;100;0;100;100;100;
30;35;42;3;100;0;100;100;100;
30;35;42;3;100;0;100;0;100;
30;35;42;3;100;0;100;0;100;
30;35;42;3;100;0;100;0;100;
22;24;34;4;100;0;100;0;100;
22;24;34;4;0;0;100;0;100;
22;24;34;4;0;0;100;0;100;
22;24;34;4;0;0;100;0;100;
22;24;34;4;0;0;100;0;100;
28;26;34;3;0;0;100;0;100;
28;26;34;3;0;0;100;0;100;
28;26;34;3;0;0;0;0;100;
28;26;34;3;0;0;0;0;100;
28;26;34;3;0;0;0;0;100;
28;26;34;3;0;0;0;0;100;
28;26;34;3;0;0;0;0;100;
28;32;42;4;0;0;0;0;100;
28;32;42;4;0;0;0;0;100;
28;32;42;4;0;0;0;0;100;
28;32;42;4;0;0;0;0;100;
28;32;42;4;0;0;0;0;100;
28;32;42;4;0;0;0;0;100;
28;32;42;4;0;0;0;0;100;
28;32;42;4;0;0;0;0;100;
28;32;42;4;0;0;0;0;100;
28;32;42;4;0;0;0;0;100;
28;32;42;4;0;0;0;0;100;
28;32;42;4;0;0;0;0;100;
28;32;42;4;100;0;0;0;100;
30;34;42;4;100;0;0;0;100;
30;34;42;4;100;0;0;100;100;
30;34;42;4;100;0;0;0;100;
30;34;42;4;0;0;0;0;100;
30;34;42;4;0;0;0;0;100;
30;34;42;4;0;0;0;0;100;
30;34;42;4;0;0;0;0;100;
30;34;42;4;0;0;0;0;100;
30;34;42;4;0;0;0;0;100;
30;34;42;4;0;0;0;0;100;
30;34;42;4;0;0;0;0;100;
30;34;42;4;0;0;0;0;100;
30;34;42;4;0;0;0;0;100;
30;34;42;4;0;0;0;0;100;
30;34;42;4;0;0;0;0;100;
30;34;42;4;0;0;0;0;100;
28;32;42;4;0;0;0;0;100;
28;32;42;4;0;0;0;0;100;
28;32;42;4;0;0;0;0;100;
28;32;42;4;0;0;0;0;100;
28;32;42;4;0;0;0;0;100;
28;32;42;4;0;0;0;0;100;
28;32;42;4;0;0;0;100;100;
28;32;42;4;0;0;0;100;100;
28;32;42;4;0;0;0;100;100;
28;32;42;4;0;0;0;100;100;
28;32;42;4;0;0;0;0;100;
28;32;42;4;0;0;0;0;100;
28;32;42;4;0;0;0;0;100;
28;32;42;4;0;0;0;0;100;
28;32;42;4;0;0;0;0;100;
28;32;42;4;0;0;0;0;100;
28;32;42;4;0;0;0;0;100;
28;32;42;4;0;0;0;0;100;
28;32;42;4;0;0;0;100;100;
28;32;42;4;0;0;0;100;100;
28;32;42;4;0;0;0;100;100;
28;32;42;4;0;0;0;100;100;
28;32;42;4;0;0;0;100;100;
28;32;42;4;0;0;0;100;100;
28;32;42;4;0;0;0;100;100;
28;32;42;4;0;0;0;100;100;
28;32;42;4;0;0;0;100;100;
28;32;42;4;0;0;0;100;100;
28;32;42;4;0;0;0;100;100;
28;32;42;4;0;0;0;100;100;
28;32;42;4;0;0;0;100;100;
28;32;42;4;0;0;0;100;100;
28;32;42;4;0;0;0;100;100;
28;32;42;4;0;0;0;100;100;
28;32;42;4;0;0;0;100;100;
28;32;42;4;0;0;0;100;100;
28;32;42;4;0;0;0;100;100;
28;32;42;4;0;0;0;0;100;
28;32;42;4;0;0;0;0;100;
28;32;42;4;0;0;0;0;100;
28;32;42;4;0;0;0;0;100;
28;32;42;4;0;0;0;0;100;
28;32;42;4;0;0;0;0;100;
28;32;42;4;0;0;0;0;100;
28;32;42;4;0;0;0;0;100;
28;32;42;4;0;0;0;0;100;
28;32;42;4;0;0;0;0;100;
28;32;42;4;0;0;0;0;100;
28;32;42;4;0;0;0;0;100;
28;32;42;4;0;0;0;0;100;
28;32;42;4;0;0;0;100;100;
28;32;42;4;0;0;0;100;100;
28;32;42;4;0;0;0;100;100;
28;32;42;4;0;0;0;100;100;
28;32;42;4;0;0;0;100;100;
28;32;42;4;0;0;0;100;100;
28;32;42;4;0;0;0;100;100;
28;32;42;4;0;0;0;100;100;
28;32;42;4;0;0;0;100;100;
28;32;42;4;100;0;0;100;100;
28;32;42;4;0;0;0;100;100;
30;34;42;4;0;0;0;100;100;
30;34;42;4;0;0;0;100;100;
30;34;42;4;0;0;0;0;100;
30;34;42;4;0;0;0;0;100;
30;34;42;4;0;0;0;0;100;
30;34;42;4;0;0;0;0;100;
30;35;46;5;0;0;0;0;100;
30;35;46;5;0;0;0;0;100;
30;35;46;5;0;0;0;0;100;
30;35;46;5;0;0;0;0;100;
30;35;46;5;0;0;0;0;100;
30;35;46;5;0;0;0;0;100;
30;35;46;5;0;0;0;100;100;
28;34;47;5;0;0;0;100;100;
28;34;47;5;0;0;0;100;100;
28;34;47;5;0;0;0;100;100;
28;34;47;5;0;0;0;100;100;
28;34;47;5;100;0;0;100;100;
28;34;47;5;100;0;0;100;100;
32;32;42;5;100;0;0;100;100;
32;32;42;5;100;0;0;100;100;
32;32;42;5;100;0;0;100;100;
30;34;46;5;100;0;0;100;100;
30;34;46;5;100;0;0;100;100;
30;34;46;5;100;0;0;100;100;
30;34;46;5;0;0;0;100;100;
30;34;46;5;0;0;0;100;100;
30;34;46;5;0;0;0;100;100;
30;34;46;5;0;0;0;100;100;
30;34;46;5;100;0;0;100;100;
30;34;46;5;100;0;0;100;100;
36;38;46;5;100;0;0;100;100;
36;38;46;5;100;0;0;100;100;
36;38;46;5;0;0;0;100;100;
36;38;46;5;0;0;0;100;100;
36;38;46;5;0;0;0;100;100;
36;38;46;5;0;0;0;100;100;
36;38;46;5;0;0;0;100;100;
36;38;46;5;0;0;0;100;100;
36;38;46;5;0;0;0;100;100;
36;38;46;5;0;0;0;100;100;
36;38;46;5;0;0;0;0;100;
36;38;46;5;0;0;0;0;100;
36;38;46;5;0;0;0;0;100;
36;38;46;5;0;0;0;0;100;
36;38;46;5;0;0;0;0;100;
36;38;46;5;0;0;0;0;100;
36;38;46;5;0;0;0;0;100;
36;38;46;5;0;0;0;0;100;
36;38;46;5;0;0;0;0;100;
36;38;46;5;0;0;0;0;100;
36;38;46;5;0;0;0;0;100;
36;38;46;5;0;0;0;0;100;
36;38;46;5;0;0;0;0;100;
36;38;46;5;0;0;0;0;100;
36;38;46;5;0;0;0;0;100;
36;38;46;5;0;0;0;0;100;
30;35;46;5;0;0;0;0;100;
30;35;46;5;0;0;0;100;100;
30;32;42;5;0;0;0;100;100;
30;32;42;5;0;0;100;100;100;
30;34;46;5;0;0;100;100;100;
28;32;46;5;0;0;100;100;100;
28;32;46;5;0;0;100;100;100;
28;32;46;5;0;0;100;100;100;
28;32;46;5;0;0;100;100;100;
28;32;46;5;0;0;100;0;100;
28;32;42;5;0;0;100;0;100;
28;32;42;5;0;0;100;0;100;
28;32;42;5;0;0;100;0;100;
28;32;42;5;0;0;100;0;100;
28;32;42;5;0;0;100;0;100;
28;32;42;5;0;0;100;0;100;
28;32;42;5;0;0;100;0;100;
28;32;42;5;0;0;0;0;100;
28;32;43;5;0;0;0;0;100;
28;32;43;5;0;0;0;0;100;
28;32;43;5;0;0;100;0;100;
28;32;43;5;0;0;100;0;100;
28;32;43;5;0;0;100;0;100;
28;32;43;5;0;0;100;0;100;
28;32;43;5;0;0;100;0;100;
28;32;43;5;0;0;100;0;100;
28;32;43;5;0;0;100;0;100;
30;34;42;4;0;0;100;0;100;
30;34;42;4;0;0;0;0;100;
30;34;42;4;0;0;0;0;100;
30;34;42;4;0;0;0;0;100;
28;32;42;5;0;0;0;0;100;
28;32;42;5;0;0;0;0;100;
28;32;42;5;0;0;0;0;100;
28;32;42;5;0;0;0;0;100;
28;32;42;5;0;0;0;0;100;
28;33;42;4;0;0;0;0;100;
28;33;42;4;0;0;0;0;100;
28;33;42;4;0;0;0;0;100;
28;33;42;4;0;0;0;0;100;
28;33;42;4;0;0;0;0;100;
28;33;42;4;0;0;0;100;100;
28;33;42;4;0;0;0;100;100;
28;33;42;4;0;0;0;100;100;
28;33;42;4;0;0;0;100;100;
28;33;42;4;0;0;0;100;100;
28;33;42;4;0;0;0;100;100;
28;33;42;4;0;0;0;100;100;
28;33;42;4;0;0;0;100;100;
28;33;42;4;0;0;0;100;100;
28;33;42;4;0;0;0;100;100;
28;33;42;4;0;0;0;100;100;
28;33;42;4;0;0;0;100;100;
28;33;42;4;0;0;0;100;100;
28;33;42;4;0;0;0;100;100;
28;33;42;4;0;0;0;100;100;
28;33;42;4;0;0;0;100;100;
28;33;42;4;0;0;0;100;100;
28;33;42;4;0;0;0;100;100;
28;33;42;4;0;0;0;0;100;
28;33;42;4;0;0;0;0;100;
28;33;42;4;0;0;0;0;100;
28;33;42;4;0;0;0;0;100;
28;33;42;4;0;0;0;0;100;
28;32;42;4;0;0;0;0;100;
28;32;42;4;0;0;0;0;100;
28;32;42;4;0;0;0;0;100;
28;32;42;4;0;0;0;0;100;
28;32;42;4;0;0;0;0;100;
28;32;42;4;0;0;0;0;100;
28;32;42;4;0;0;0;0;100;
28;32;42;4;0;0;0;0;100;
30;32;40;4;0;0;0;0;100;
30;32;40;4;0;0;0;0;100;
30;32;40;4;0;0;0;0;100;
30;32;34;3;0;0;0;0;100;
30;32;34;3;0;0;0;100;100;
30;32;34;3;0;0;0;100;100;
30;32;34;3;0;0;0;100;100;
30;32;34;3;0;0;0;100;100;
30;32;34;3;0;0;0;100;100;
30;32;34;3;0;0;0;100;100;
30;32;34;3;100;0;0;100;100;
30;32;34;3;100;0;0;100;100;
30;32;34;3;100;0;0;100;100;
30;32;34;3;100;0;0;100;100;
30;32;34;3;100;0;0;100;100;
30;32;34;3;100;0;0;100;100;
30;32;34;3;100;0;0;100;100;
30;32;34;3;100;0;0;100;100;
30;32;34;3;100;0;0;100;100;
30;32;34;3;100;0;0;100;100;
28;32;34;3;100;0;0;100;100;
28;32;34;3;100;0;0;100;100;
28;32;34;3;100;0;0;100;100;
28;32;34;3;100;0;0;100;100;
28;32;34;3;100;0;0;100;100;
28;32;34;3;0;0;0;100;100;
28;32;34;3;0;0;0;100;100;
28;32;34;3;0;0;0;100;100;
28;32;34;3;0;0;0;100;100;
28;32;34;3;0;0;0;100;100;
28;32;34;3;0;0;0;100;100;
28;32;34;3;0;0;0;100;100;
28;32;34;3;0;0;0;100;100;
28;32;34;3;0;0;0;0;100;
28;32;34;3;0;0;0;0;100;
28;32;34;3;0;0;0;0;100;
28;32;34;3;0;0;0;0;100;
28;32;34;3;0;0;0;0;100;
22;27;38;4;0;0;0;0;100;
22;27;38;4;0;0;0;0;100;
22;27;38;4;0;0;0;0;100;
22;27;38;4;0;0;0;0;100;
22;27;38;4;0;0;0;0;100;
22;27;38;4;0;0;0;0;100;
22;27;38;4;0;0;0;0;100;
22;27;38;4;0;0;0;0;100;
22;27;38;4;0;0;0;0;100;
22;27;38;4;0;0;0;0;100;
22;27;38;4;0;0;0;0;100;
22;22;34;3;0;0;0;0;100;
22;22;34;3;0;0;0;0;100;
22;22;34;3;0;0;0;0;100;
22;22;34;3;0;0;0;0;100;
22;22;34;3;0;0;0;0;100;
22;22;34;3;0;0;0;0;100;
22;22;34;3;0;0;0;0;100;
22;22;34;3;0;0;0;0;100;
28;32;40;4;0;0;0;0;100;
28;32;40;4;0;0;0;0;100;
28;32;40;4;0;0;0;0;100;
28;32;40;4;0;0;0;0;100;
28;32;40;4;0;0;0;0;100;
28;32;40;4;0;0;0;0;100;
28;32;40;4;0;0;0;0;100;
28;32;40;4;0;0;0;0;100;
28;32;40;4;0;0;0;0;100;
28;32;40;4;0;0;0;0;100;
28;32;40;4;0;0;0;0;100;
28;32;40;4;0;0;0;0;100;
28;32;40;4;0;0;0;0;100;
28;32;40;4;0;0;0;0;100;
28;32;40;4;0;0;0;0;100;
28;32;40;4;0;0;0;0;100;
28;32;40;4;0;0;0;0;100;
28;32;40;4;0;0;0;0;100;
28;32;40;4;0;0;0;0;100;
28;32;40;4;0;0;0;0;100;
22;26;35;4;0;0;0;0;100;
28;26;34;3;0;0;0;0;100;
28;26;34;3;0;0;0;0;100;
28;26;34;3;0;0;0;0;100;
28;26;34;3;0;0;0;0;100;
28;26;34;3;0;0;0;0;100;
28;26;34;3;0;0;0;0;100;
28;26;34;3;0;0;0;0;100;
28;26;34;3;0;0;0;0;100;
28;26;34;3;0;0;0;0;100;
28;26;34;3;0;0;0;0;100;
30;32;40;3;0;0;0;0;100;
30;32;40;3;0;0;0;0;100;
28;32;42;4;0;0;0;0;100;
28;32;42;4;0;0;0;0;100;
28;32;42;4;0;0;0;0;100;
28;32;42;4;0;0;0;0;100;
28;32;42;4;0;0;0;0;100;
28;32;42;4;0;0;0;0;100;
28;32;42;4;0;0;0;0;100;
28;32;35;4;0;0;0;0;100;
28;32;35;4;0;0;0;0;100;
28;32;35;4;0;0;0;0;100;
28;32;35;4;0;0;0;0;100;
30;32;42;4;0;0;0;0;100;
30;32;42;4;0;0;0;0;100;
30;32;42;4;0;0;0;0;100;
30;32;42;4;0;0;0;0;100;
28;32;40;4;0;0;0;0;100;
28;32;40;4;0;0;0;100;100;
28;32;40;4;0;0;0;100;100;
28;32;40;4;0;0;0;100;100;
28;32;40;4;0;0;0;100;100;
28;32;40;4;0;0;0;100;100;
28;32;40;4;0;0;0;100;100;
28;32;40;4;0;0;0;100;100;
28;32;40;4;0;0;0;100;100;
28;32;40;4;0;0;0;100;100;
28;32;40;4;0;0;0;100;100;
28;32;40;4;0;0;0;100;100;
28;32;40;4;0;0;0;100;100;
28;32;40;4;0;0;0;100;100;
30;33;42;4;0;0;0;100;100;
30;33;42;4;0;0;0;100;100;
30;33;42;4;0;0;0;100;100;
30;33;42;4;0;0;0;100;100;
30;32;42;5;0;0;0;100;100;
30;32;42;5;0;0;0;100;100;
30;32;42;5;0;0;0;100;100;
30;32;42;5;0;0;0;100;100;
30;32;42;5;0;0;0;100;100;
30;32;42;5;0;0;0;100;100;
30;32;42;5;0;0;0;100;100;
30;32;42;5;0;0;0;100;100;
30;32;42;5;0;0;100;100;100;
28;32;43;5;0;0;100;100;100;
28;32;43;5;0;0;100;100;100;
28;32;43;5;0;0;100;100;100;
28;32;43;5;0;0;100;100;100;
28;32;43;5;0;0;100;100;100;
32;32;42;4;0;0;100;100;100;
32;32;42;4;0;0;100;100;100;
32;32;42;4;0;0;100;100;100;
32;32;42;4;0;0;100;100;100;
32;32;42;4;0;0;100;100;100;
28;34;46;5;0;0;100;100;100;
28;34;46;5;0;0;100;100;100;
28;34;46;5;0;0;100;100;100;
28;34;46;5;0;0;100;100;100;
30;32;43;5;0;0;100;100;100;
30;32;43;5;0;0;100;100;100;
30;32;43;5;0;0;100;100;100;
30;32;43;5;0;0;100;100;100;
30;32;43;5;0;0;100;100;100;
30;32;46;5;0;0;100;100;100;
30;32;46;5;0;0;100;100;100;
30;32;46;5;0;0;100;100;100;
30;32;46;5;0;0;100;100;100;
30;32;46;5;0;0;100;100;100;
30;32;46;5;0;0;100;100;100;
30;32;46;5;0;0;100;100;100;
30;32;46;5;0;0;100;100;100;
30;32;46;5;0;0;100;100;100;
30;32;46;5;0;0;100;100;100;
36;40;47;5;0;0;100;100;100;
36;40;47;5;0;0;100;100;100;
36;40;47;5;0;0;100;100;100;
36;40;47;5;0;0;100;100;100;
36;40;47;5;0;0;100;100;100;
36;40;47;5;0;0;100;100;100;
36;40;47;5;0;0;100;100;100;
36;40;47;5;0;0;100;100;100;
36;40;47;5;0;0;100;100;100;
36;40;47;5;0;0;100;100;100;
36;40;47;5;0;0;100;100;100;
36;40;47;5;0;0;100;100;100;
36;40;47;5;0;0;100;100;100;
36;40;47;5;0;0;100;100;100;
36;40;47;5;0;0;100;100;100;
36;40;47;5;0;0;100;100;100;
36;40;47;5;0;0;100;100;100;
36;40;47;5;0;0;100;100;100;
36;40;47;5;0;0;100;100;100;
36;40;47;5;0;0;100;100;100;
36;40;47;5;0;0;100;100;100;
36;40;47;5;0;0;100;100;100;
36;40;47;5;0;0;100;100;100;
36;40;47;5;0;0;100;100;100;
36;40;47;5;0;0;0;100;100;
36;38;46;5;0;0;0;100;100;
36;38;46;5;0;0;100;100;100;
36;38;46;5;0;0;100;100;100;
36;38;46;5;0;0;100;100;100;
36;38;46;5;0;0;100;100;100;
36;38;46;5;0;0;100;100;100;
36;38;46;5;0;0;100;100;100;
36;38;46;5;0;0;100;100;100;
36;38;46;5;0;0;100;100;100;
36;38;46;5;0;0;100;100;100;
36;38;46;5;0;0;100;100;100;
36;38;46;5;0;0;100;100;100;
36;38;46;5;0;0;100;100;100;
36;38;46;5;0;0;100;100;100;
30;34;47;5;0;0;100;100;100;
30;34;47;5;0;0;100;0;100;
30;34;47;5;0;0;100;0;100;
30;34;47;5;0;0;100;0;100;
30;35;47;5;0;0;100;0;100;
30;35;47;5;0;0;100;0;100;
30;35;47;5;0;0;0;0;100;
30;35;47;5;0;0;0;0;100;
30;35;47;5;0;0;0;0;100;
30;35;47;5;0;0;0;0;100;
30;35;46;5;0;0;0;0;100;
30;35;46;5;0;0;0;0;100;
28;32;42;5;0;0;0;0;100;
28;32;42;5;0;0;0;0;100;
28;32;42;5;0;0;0;0;100;
28;32;43;5;0;0;0;0;100;
28;32;43;5;0;0;100;0;100;
28;32;43;5;0;0;100;0;100;
28;32;43;5;0;0;100;0;100;
28;32;43;5;0;0;100;0;100;
28;32;43;5;0;0;100;0;100;
28;32;43;5;0;0;100;0;100;
28;32;43;5;0;0;100;0;100;
28;32;43;5;0;100;100;0;100;
28;32;43;5;0;100;100;0;100;
28;32;43;5;0;100;100;0;100;
28;32;43;5;0;100;100;0;100;
28;32;43;5;0;100;100;0;100;
28;32;43;5;0;100;100;0;100;
28;32;43;5;0;100;100;0;100;
28;32;43;5;0;100;100;0;100;
28;32;42;5;0;100;100;0;100;
28;32;42;5;0;100;100;0;100;
28;32;42;5;0;100;100;0;100;
28;32;42;5;0;100;100;0;100;
30;32;42;4;0;100;100;0;100;
30;32;42;4;0;100;100;0;100;
30;32;42;4;0;100;100;0;100;
30;32;42;4;0;100;100;0;100;
30;34;42;4;0;100;100;0;100;
30;34;42;4;0;100;100;0;100;
30;34;42;4;0;100;100;0;100;
30;34;42;4;0;100;100;0;100;
30;34;42;4;0;100;100;0;100;
30;34;42;4;0;100;100;0;100;
30;34;42;4;0;100;100;0;100;
30;34;42;4;0;100;100;0;100;
30;32;42;4;0;100;100;0;100;
30;32;42;4;0;100;100;0;100;
28;32;40;4;0;100;100;0;100;
28;32;40;4;0;100;100;0;100;
28;32;40;4;0;100;100;0;100;
28;32;40;4;0;0;100;0;100;
28;32;40;4;0;0;100;0;100;
28;32;40;4;0;0;100;0;100;
28;32;40;4;0;0;100;0;100;
28;32;40;4;0;0;100;0;100;
28;32;40;4;0;0;100;0;100;
30;32;40;4;0;0;100;0;100;
30;32;40;4;0;0;100;0;100;
30;32;40;4;0;0;0;0;100;
30;32;40;4;0;0;0;0;100;
30;32;40;4;0;0;0;0;100;
30;32;40;4;0;0;100;0;100;
28;32;40;4;0;0;100;0;100;
28;32;40;4;0;0;100;0;100;
28;32;40;4;0;0;100;0;100;
28;32;40;4;0;0;100;0;100;
28;32;40;4;0;0;100;0;100;
28;32;40;4;0;0;100;0;100;
28;32;40;4;0;0;100;0;100;
28;32;40;4;0;0;100;0;100;
28;32;40;4;0;0;100;0;100;
28;32;40;4;0;0;100;0;100;
28;32;40;4;0;0;100;0;100;
28;32;40;4;0;0;0;0;100;
28;32;40;4;0;0;0;0;100;
28;32;40;4;0;0;0;0;100;
28;32;40;4;0;0;0;0;100;
28;32;40;4;0;0;0;0;100;
28;32;40;4;0;0;0;0;100;
28;32;40;4;0;0;0;0;100;
28;32;40;4;0;0;0;0;100;
24;24;34;4;0;0;0;0;100;
22;32;42;4;0;0;0;0;100;
28;32;40;4;0;0;0;0;100;
22;26;34;3;0;0;0;0;100;
28;32;40;3;0;0;0;0;100;
28;24;34;4;0;0;0;0;100;
28;32;40;4;0;0;0;0;100;
28;32;40;4;0;100;0;0;100;
28;32;40;4;0;100;0;0;100;
30;32;40;4;0;100;0;0;100;
28;32;40;4;0;100;0;0;100;
34;35;42;4;0;100;0;0;100;
30;32;42;5;0;100;0;0;100;
30;35;42;4;0;100;0;0;100;
30;35;42;4;0;100;0;0;100;
30;35;42;4;0;100;0;0;100;
30;35;42;4;0;100;0;0;100;
30;35;42;4;0;100;0;0;100;
30;35;42;4;0;100;0;0;100;
30;35;42;4;0;100;0;0;100;
30;35;42;4;0;100;0;0;100;
30;35;42;4;0;0;0;0;100;
30;35;42;4;0;0;0;0;100;
30;35;42;4;0;0;0;0;100;
30;35;42;4;0;0;0;0;100;
30;35;42;4;0;0;0;0;100;
30;35;42;4;0;0;0;0;100;
30;35;42;4;0;0;0;0;100;
30;35;42;4;0;0;0;0;100;
30;35;42;4;0;0;0;0;100;
30;35;42;4;0;0;0;0;100;
30;35;42;4;0;0;0;0;100;
30;35;42;4;0;0;0;0;100;
30;35;42;4;0;0;0;0;100;
30;35;42;4;0;0;0;0;100;
28;32;43;5;0;0;0;0;100;
28;32;43;5;0;100;0;0;100;
28;32;43;5;0;100;0;0;100;
28;32;43;5;0;100;0;0;100;
28;32;43;5;0;100;0;0;100;
28;32;43;5;0;100;0;0;100;
30;34;46;5;0;100;0;0;100;
30;34;46;5;0;100;0;0;100;
30;34;46;5;0;100;0;0;100;
30;34;46;5;0;100;0;0;100;
30;34;46;5;0;0;0;0;100;
30;34;46;5;0;0;0;0;100;
30;34;43;5;0;0;0;0;100;
30;34;43;5;0;0;0;0;100;
32;36;46;5;0;0;0;0;100;
36;38;46;5;0;0;0;0;100;
28;32;46;5;0;0;0;0;100;
30;35;46;5;0;0;0;0;100;
36;40;47;5;0;0;0;0;100;
36;35;42;5;0;0;0;0;100;
30;32;42;5;0;0;0;0;100;
28;32;42;5;0;0;0;0;100;
28;32;42;5;0;0;0;0;100;
28;32;43;5;0;0;0;0;100;
28;32;43;5;0;0;0;0;100;
28;32;42;5;0;0;0;0;100;
28;32;43;5;0;0;0;0;100;
30;34;42;4;0;0;0;0;100;
30;34;42;4;0;0;0;0;100;
30;34;42;4;0;0;0;0;100;
30;34;42;4;0;0;0;0;100;
30;34;42;4;0;0;0;0;100;
30;34;42;4;0;0;0;0;100;
30;34;42;4;0;0;0;0;100;
30;34;42;4;0;0;0;0;100;
30;34;42;4;0;0;0;0;100;
30;34;42;4;0;0;0;0;100;
30;34;42;4;0;0;0;0;100;
30;34;42;4;0;0;0;0;100;
28;32;42;5;0;0;0;0;100;
28;32;42;5;0;0;0;0;100;
28;32;42;5;0;0;0;0;100;
28;32;42;5;0;0;0;0;100;
28;32;40;4;0;0;0;0;100;
28;32;40;4;0;0;0;0;100;
28;32;40;4;0;0;0;0;100;
28;32;40;4;0;0;0;0;100;
28;32;40;4;0;0;0;0;100;
28;32;40;4;0;0;0;0;100;
28;32;40;4;0;0;0;0;100;
28;32;40;4;0;0;0;0;100;
28;32;40;4;0;0;0;0;100;
28;32;40;4;0;0;0;0;100;
28;32;40;4;0;0;0;0;100;
28;32;40;4;0;0;0;0;100;
28;32;40;4;0;0;0;0;100;
28;32;40;4;0;0;0;0;100;
28;32;40;4;0;0;0;0;100;
28;32;40;4;0;0;0;0;100;
28;32;40;4;0;0;0;0;100;
28;32;40;4;0;0;0;0;100;
28;32;40;4;0;0;0;100;100;
28;32;40;4;0;0;0;100;100;
28;32;40;4;0;0;0;100;100;
28;32;40;4;0;0;0;100;100;
28;32;40;4;0;0;0;100;100;
22;24;34;4;0;0;0;100;100;
22;24;34;4;0;0;0;100;100;
22;24;34;4;0;0;0;100;100;
22;24;34;4;0;0;0;100;100;
22;24;34;4;0;0;0;100;100;
22;24;34;4;0;0;0;100;100;
22;24;34;4;0;0;0;100;100;
22;24;34;4;0;0;0;100;100;
22;24;34;4;100;0;0;100;100;
22;24;34;4;100;0;0;100;100;
22;24;34;4;100;0;0;100;100;
28;26;34;3;100;0;0;100;100;
28;26;34;3;100;0;0;100;100;
28;26;34;3;100;100;0;100;100;
28;26;34;3;100;100;0;100;100;
28;26;34;3;100;100;0;100;100;
28;26;34;3;100;100;0;100;100;
28;26;34;3;100;100;0;100;100;
28;26;34;3;100;100;0;100;100;
28;26;34;3;0;100;0;100;100;
28;26;34;3;0;100;0;100;100;
28;26;34;3;0;100;0;100;100;
28;26;34;3;100;100;0;100;100;
28;26;34;3;100;100;0;100;100;
28;26;34;3;100;100;0;100;100;
28;26;34;3;100;100;0;100;100;
28;26;34;3;100;100;0;100;100;
28;26;34;3;100;100;0;100;100;
28;26;34;3;0;100;0;100;100;
28;26;34;3;0;100;0;100;100;
28;26;34;3;0;0;0;100;100;
22;26;34;4;0;0;0;100;100;
22;26;34;4;0;0;0;0;100;
22;22;34;4;0;0;0;0;100;
22;22;34;4;0;0;0;100;100;
22;22;34;4;0;0;0;100;100;
22;22;34;4;100;0;0;100;100;
28;26;34;4;100;0;0;100;100;
30;32;34;3;100;0;0;100;100;
30;32;34;3;100;100;0;100;100;
30;32;34;3;0;100;0;100;100;
30;32;34;3;0;100;0;100;100;
30;32;34;3;100;100;0;100;100;
22;27;42;4;100;100;0;100;100;
22;27;42;4;0;100;0;100;100;
30;32;40;4;0;100;0;100;100;
30;32;40;4;100;100;0;100;100;
30;32;42;4;100;100;0;100;100;
30;32;42;4;0;100;0;100;100;
30;32;42;4;0;100;0;0;100;
30;32;42;4;0;100;0;0;100;
30;32;42;4;0;0;0;0;100;
28;32;42;5;0;0;0;0;100;
30;34;43;5;0;0;0;0;100;
30;34;43;5;0;0;100;0;100;
30;34;43;5;0;100;100;0;100;
30;34;46;5;0;100;100;0;100;
30;34;43;5;0;100;100;0;100;
30;34;43;5;0;100;100;0;100;
30;32;43;5;0;100;100;0;100;
28;32;46;5;0;100;100;0;100;
28;32;46;5;0;100;100;0;100;
28;32;46;5;0;0;100;0;100;
28;32;46;5;0;0;100;0;100;
28;32;46;5;0;0;100;0;100;
28;32;46;5;0;0;100;0;100;
28;32;46;5;0;0;100;0;100;
28;32;46;5;0;0;100;0;100;
28;32;46;5;0;0;0;0;100;
34;38;46;5;0;0;0;0;100;
34;38;46;5;0;0;0;100;100;
34;38;46;5;0;0;0;100;100;
34;38;46;5;0;0;100;100;100;
36;38;46;5;0;0;100;100;100;
30;34;47;5;0;0;100;100;100;
30;35;47;5;0;0;100;100;100;
30;35;47;5;0;0;100;100;100;
30;35;47;5;0;0;100;100;100;
30;35;47;5;0;0;100;100;100;
30;35;47;5;0;0;100;100;100;
30;35;47;5;0;0;100;100;100;
30;35;47;5;0;0;100;100;100;
30;35;47;5;0;0;100;100;100;
30;35;47;5;0;0;100;100;100;
30;35;47;5;0;0;100;100;100;
30;35;47;5;0;0;100;100;100;
30;35;47;5;0;0;100;100;100;
30;35;47;5;0;0;100;100;100;
30;35;47;5;0;0;100;100;100;
30;35;47;5;0;0;100;100;100;
30;35;47;5;0;0;100;100;100;
30;35;47;5;0;0;100;100;100;
30;35;47;5;0;0;100;100;100;
30;35;47;5;0;0;100;100;100;
30;35;47;5;0;0;100;100;100;
30;35;47;5;0;0;100;100;100;
30;35;47;5;0;0;100;100;100;
30;35;47;5;0;0;100;100;100;
30;35;47;5;0;0;100;100;100;
30;35;47;5;0;0;100;100;100;
30;35;47;5;0;0;100;100;100;
30;35;46;5;0;0;100;100;100;
30;35;46;5;0;0;100;100;100;
30;35;46;5;0;0;100;100;100;
28;34;47;5;0;0;100;100;100;
28;34;47;5;0;0;100;100;100;
28;34;47;5;0;0;100;100;100;
28;32;42;5;0;0;100;100;100;
28;32;42;5;0;0;100;100;100;
28;32;42;5;0;0;100;100;100;
28;32;42;5;0;0;100;100;100;
28;32;42;5;0;0;100;100;100;
28;32;42;5;0;0;100;100;100;
28;32;42;5;0;0;100;100;100;
28;32;42;5;0;100;100;100;100;
28;32;42;5;0;100;100;0;100;
28;32;42;5;0;100;100;0;100;
28;32;42;5;0;100;100;0;100;
28;32;42;5;0;100;100;0;100;
32;34;42;4;0;100;100;0;100;
32;34;42;4;0;100;100;100;100;
32;34;42;4;0;100;100;100;100;
32;34;42;4;0;100;100;100;100;
28;32;42;4;0;100;100;100;100;
28;32;42;4;0;100;100;100;100;
28;32;42;4;100;100;100;100;100;
28;32;42;4;100;100;100;100;100;
30;32;40;4;100;100;100;100;100;
28;32;42;4;100;100;100;100;100;
28;32;42;4;100;100;100;100;100;
28;32;42;4;100;100;100;100;100;
22;26;40;4;100;100;100;100;100;
22;26;40;4;100;100;100;100;100;
22;26;40;4;100;100;100;100;100;
22;26;40;4;100;100;100;100;100;
22;26;40;4;100;100;100;100;100;
22;26;40;4;100;0;100;100;100;
22;26;40;4;100;0;100;100;100;
22;26;40;4;0;0;100;100;100;
28;32;35;3;0;0;100;100;100;
28;32;35;3;0;0;100;100;100;
28;32;35;3;0;0;100;0;100;
28;32;35;3;0;0;0;0;100;
28;32;35;3;0;0;0;0;100;
28;26;34;3;0;0;0;0;100;
28;32;40;4;0;0;0;0;100;
28;32;40;4;0;0;0;0;100;
28;32;40;4;0;0;0;0;100;
28;32;40;4;0;0;0;0;100;
28;32;40;4;0;0;0;0;100;
28;32;40;4;0;0;0;0;100;
28;32;40;4;0;0;100;0;100;
28;32;40;4;0;0;100;0;100;
28;32;34;4;0;0;100;0;100;
28;32;34;4;0;0;100;0;100;
28;32;34;4;0;0;100;0;100;
28;32;34;4;0;0;100;0;100;
28;32;34;4;0;0;100;0;100;
28;32;34;4;0;0;100;0;100;
28;32;34;4;0;0;100;0;100;
28;32;34;4;0;0;100;0;100;
28;32;34;4;0;0;100;0;100;
28;32;34;4;0;0;100;0;100;
28;32;34;4;0;0;100;0;100;
28;32;34;4;0;0;100;0;100;
28;32;34;4;0;0;100;0;100;
28;32;34;4;0;0;100;0;100;
28;32;34;4;0;0;100;0;100;
28;32;34;4;0;0;100;0;100;
28;32;34;4;0;0;100;0;100;
28;32;34;3;0;0;100;0;100;
28;32;34;3;0;0;100;0;100;
28;32;34;3;0;0;100;0;100;
28;32;34;3;0;0;100;0;100;
28;32;34;3;0;0;100;0;100;
28;32;34;3;0;0;100;0;100;
28;32;34;3;0;0;0;0;100;
28;32;34;3;0;0;0;0;100;
28;32;34;3;0;0;0;0;100;
28;32;35;3;0;0;0;0;100;
28;32;35;3;0;0;0;0;100;
30;32;40;4;0;0;0;0;100;
30;32;40;4;0;0;0;0;100;
30;32;40;4;0;0;0;0;100;
30;32;40;4;0;0;0;0;100;
28;32;42;4;0;0;0;0;100;
28;32;42;4;0;0;0;0;100;
28;32;42;4;0;0;0;0;100;
28;32;42;4;0;0;0;0;100;
28;32;42;4;0;0;0;0;100;
28;32;42;4;0;0;0;0;100;
28;32;42;4;0;0;0;0;100;
30;34;42;4;0;0;0;0;100;
30;34;42;4;0;0;0;0;100;
30;34;42;4;0;0;0;0;100;
30;34;42;4;0;0;0;0;100;
30;34;42;4;0;0;0;0;100;
30;34;42;4;0;0;0;0;100;
30;34;42;4;0;0;0;0;100;
30;34;42;4;0;0;0;0;100;
30;34;42;4;0;0;0;0;100;
30;34;42;4;0;0;0;0;100;
30;34;42;4;0;0;0;0;100;
30;34;42;4;0;0;0;0;100;
30;34;42;4;0;0;0;0;100;
30;34;42;4;0;100;0;0;100;
30;34;42;4;0;100;0;0;100;
30;34;42;4;0;100;0;0;100;
30;34;42;4;0;100;0;0;100;
30;34;42;4;0;100;0;0;100;
30;34;42;4;0;100;0;0;100;
30;34;42;4;0;100;0;0;100;
30;34;42;4;0;100;0;0;100;
30;34;42;4;0;100;0;0;100;
30;34;42;4;0;100;0;0;100;
30;34;42;4;0;100;0;0;100;
30;34;42;4;0;100;0;0;100;
28;32;42;5;0;100;0;0;100;
28;32;42;4;0;100;0;0;100;
28;32;42;4;0;100;0;0;100;
28;32;42;4;0;100;0;0;100;
28;32;42;4;0;100;0;0;100;
28;32;42;4;0;100;0;0;100;
28;32;42;4;0;100;0;0;100;
28;32;42;4;0;100;0;0;100;
28;32;42;4;0;100;0;0;100;
28;32;42;4;0;0;0;0;100;
28;32;42;4;0;0;0;0;100;
28;32;42;4;0;0;0;0;100;
36;34;42;4;0;0;0;0;100;
36;34;42;4;0;0;0;0;100;
36;34;42;4;0;0;0;0;100;
30;34;43;5;0;0;0;0;100;
30;34;43;5;0;0;0;0;100;
30;34;43;5;0;0;0;0;100;
30;34;43;5;0;0;0;0;100;
30;34;43;5;0;0;0;0;100;
30;34;43;5;0;0;0;0;100;
30;34;43;5;0;0;100;0;100;
30;34;43;5;0;0;100;0;100;
30;34;43;5;0;0;100;0;100;
30;34;43;5;0;0;100;0;100;
30;34;43;5;0;0;100;0;100;
30;34;43;5;0;0;100;0;100;
36;38;46;5;0;0;100;0;100;
36;38;46;5;0;0;100;0;100;
36;38;46;5;0;0;100;0;100;
36;38;46;5;0;0;100;0;100;
36;38;46;5;0;0;100;0;100;
36;38;46;5;0;0;100;0;100;
36;38;46;5;0;0;100;0;100;
36;38;46;5;0;0;100;0;100;
36;38;46;5;0;0;100;0;100;
28;32;42;5;0;0;100;0;100;
28;32;42;5;0;0;100;0;100;
28;32;42;5;0;0;100;0;100;
28;32;42;5;0;0;100;0;100;
28;32;42;5;0;0;100;100;100;
28;32;42;5;0;0;100;100;100;
28;32;42;5;0;0;100;100;100;
28;32;42;5;0;0;100;100;100;
28;32;42;5;0;0;100;100;100;
28;32;42;5;0;0;100;100;100;
28;32;42;5;0;0;100;100;100;
28;32;42;5;0;0;100;100;100;
28;32;42;5;0;0;100;100;100;
28;32;42;5;0;0;100;100;100;
28;32;42;5;0;0;100;100;100;
28;32;42;5;0;0;100;100;100;
28;32;42;5;0;0;100;100;100;
28;32;42;5;0;0;100;100;100;
28;32;42;5;0;0;100;100;100;
28;32;42;5;0;0;100;100;100;
28;32;42;5;0;0;100;100;100;
28;32;42;5;0;0;100;100;100;
28;32;42;5;0;0;100;100;100;
28;32;42;5;0;0;100;100;100;
28;32;42;5;0;100;100;100;100;
28;32;42;5;0;100;100;100;100;
28;32;42;5;0;100;100;100;100;
30;34;47;5;0;100;100;100;100;
30;34;47;5;0;100;100;100;100;
30;34;47;5;0;100;100;100;100;
30;34;47;5;0;100;100;100;100;
30;34;47;5;0;100;100;100;100;
30;34;47;5;0;100;100;100;100;
30;34;47;5;0;100;100;100;100;
30;34;47;5;0;100;100;100;100;
30;34;47;5;0;100;100;100;100;
30;34;47;5;0;100;100;100;100;
30;34;47;5;0;100;100;100;100;
30;34;47;5;0;100;100;100;100;
30;34;47;5;100;100;100;100;100;
30;34;47;5;100;100;100;100;100;
30;34;47;5;100;100;100;100;100;
30;34;47;5;100;100;100;100;100;
30;34;47;5;100;100;100;100;100;
34;38;47;5;100;100;100;100;100;
34;38;47;5;100;100;100;100;100;
34;38;47;5;100;100;100;100;100;
34;38;47;5;100;100;100;100;100;
34;38;47;5;100;100;100;100;100;
34;38;47;5;100;100;100;100;100;
34;38;47;5;100;100;100;100;100;
34;38;47;5;100;100;100;100;100;
32;34;42;5;100;100;100;100;100;
30;32;46;5;100;100;100;100;100;
30;34;46;5;100;100;100;100;100;
28;34;47;5;100;100;100;100;100;
30;35;47;5;100;100;100;100;100;
30;35;47;5;100;100;100;100;100;
30;35;47;5;100;100;100;100;100;
30;35;47;5;100;100;100;100;100;
30;35;47;5;100;100;100;100;100;
36;38;46;5;100;100;100;100;100;
36;38;46;5;100;100;100;100;100;
36;38;46;5;100;100;100;100;100;
36;38;46;5;100;100;100;100;100;
36;38;46;5;100;100;100;100;100;
36;38;46;5;100;100;100;100;100;
36;38;46;5;100;100;100;100;100;
36;38;46;5;100;100;100;100;100;
36;38;46;5;100;100;100;100;100;
36;38;46;5;100;100;100;100;100;
36;38;46;5;100;100;100;100;100;
36;38;46;5;100;100;100;100;100;
36;38;46;5;100;100;100;100;100;
30;32;42;5;100;100;100;100;100;
30;32;42;5;100;100;100;100;100;
30;32;42;5;100;100;100;100;100;
30;32;42;5;100;100;100;100;100;
30;32;42;5;100;100;100;100;100;
28;32;42;5;100;100;100;100;100;
28;32;42;5;100;100;100;100;100;
28;32;42;5;100;100;100;100;100;
28;32;46;5;100;100;100;100;100;
28;32;46;5;100;100;100;100;100;
28;32;46;5;0;100;100;100;100;
28;32;46;5;0;100;100;0;100;
28;32;46;5;0;100;100;0;100;
28;32;46;5;0;100;0;0;100;
30;32;42;4;0;100;0;0;100;
30;32;42;4;0;0;0;0;100;
28;32;43;5;0;0;0;0;100;
30;34;42;4;0;0;0;0;100;
30;34;42;4;0;0;0;0;100;
30;34;42;4;0;0;0;0;100;
30;34;42;4;0;0;0;0;100;
30;34;42;4;0;0;100;0;100;
28;32;42;4;0;0;100;0;100;
28;32;42;4;0;0;100;0;100;
28;32;42;4;0;0;100;0;100;
28;32;42;4;0;0;100;0;100;
28;32;42;4;0;0;100;0;100;
28;32;42;4;0;0;100;0;100;
28;32;42;4;0;0;100;0;100;
28;32;42;4;0;0;100;0;100;
28;32;42;4;0;100;100;0;100;
28;32;42;4;0;100;100;0;100;
28;32;42;4;0;100;100;0;100;
28;32;42;4;0;100;100;0;100;
28;32;42;4;0;100;100;0;100;
28;32;42;4;100;100;100;0;100;
28;32;42;4;100;100;100;0;100;
28;32;40;4;100;100;100;0;100;
30;34;42;4;100;100;100;0;100;
30;34;42;4;100;100;100;0;100;
30;34;42;4;100;100;100;0;100;
30;34;42;4;100;100;100;0;100;
28;32;40;4;100;100;100;0;100;
28;32;40;4;100;0;100;0;100;
28;32;40;4;100;0;100;0;100;
28;32;40;4;100;0;100;0;100;
28;32;40;4;100;0;100;0;100;
28;32;40;4;100;0;100;0;100;
28;32;42;4;100;0;100;0;100;
28;32;42;4;100;0;100;0;100;
28;32;42;4;100;0;100;0;100;
28;32;42;4;100;0;100;0;100;
28;32;42;4;100;0;100;0;100;
28;32;42;4;100;0;100;0;100;
28;32;42;4;100;0;100;0;100;
28;32;42;4;100;0;100;0;100;
28;32;42;4;100;0;100;0;100;
28;32;42;4;100;0;100;0;100;
28;32;40;4;100;0;100;0;100;
28;32;40;4;100;0;100;0;100;
28;32;40;4;100;0;100;0;100;
28;32;40;4;100;0;100;0;100;
28;32;40;4;100;0;100;0;100;
28;32;40;4;0;0;100;0;100;
28;32;40;4;0;0;100;0;100;
28;32;40;4;0;0;0;0;100;
30;33;42;4;0;0;0;0;100;
30;33;42;4;0;0;0;0;100;
30;33;42;4;0;0;100;0;100;
30;34;42;4;0;0;100;0;100;
30;34;42;4;0;0;100;100;100;
28;32;42;4;0;0;100;100;100;
28;32;34;4;0;0;100;100;100;
28;32;34;4;0;100;100;100;100;
28;32;34;4;0;100;100;100;100;
30;32;42;4;0;100;100;100;100;
28;32;42;5;0;100;100;100;100;
28;32;42;5;0;100;100;100;100;
28;32;42;5;0;100;100;0;100;
28;32;42;5;0;100;100;0;100;
28;32;42;5;0;0;100;0;100;
28;32;42;5;0;0;0;0;100;
28;32;42;5;0;0;0;0;100;
28;32;42;5;0;0;0;0;100;
28;32;42;5;0;0;0;0;100;
28;32;42;5;0;0;100;0;100;
28;32;42;5;0;0;100;0;100;
28;32;42;5;0;0;100;0;100;
28;32;43;5;0;0;100;0;100;
28;32;43;5;0;0;100;0;100;
28;32;43;5;0;100;100;0;100;
28;32;43;5;0;100;100;0;100;
28;32;42;5;0;100;100;0;100;
28;32;42;5;0;0;100;0;100;
28;32;42;5;0;0;100;0;100;
28;32;42;5;0;0;100;0;100;
28;32;42;5;0;0;100;0;100;
28;32;42;5;0;0;100;0;100;
28;32;42;5;0;0;100;0;100;
28;32;42;5;0;0;100;100;100;
28;32;42;5;0;0;100;0;100;
28;32;42;5;0;0;100;0;100;
28;32;42;5;0;0;0;0;100;
32;32;42;5;0;0;0;0;100;
30;32;46;5;0;0;0;0;100;
36;38;46;5;0;0;0;0;100;
36;38;46;5;0;0;0;0;100;
30;34;46;5;0;0;0;0;100;
30;34;46;5;0;0;0;100;100;
30;34;46;5;0;0;100;100;100;
30;34;46;5;0;0;100;100;100;
30;34;46;5;0;0;100;100;100;
30;34;46;5;0;0;100;0;100;
30;34;46;5;0;100;100;0;100;
30;34;46;5;0;0;100;0;100;
30;34;46;5;0;0;100;100;100;
30;34;46;5;0;0;100;100;100;
28;33;47;5;0;0;100;100;100;
30;35;46;5;0;0;100;100;100;
30;34;46;5;0;0;100;100;100;
30;34;46;5;0;100;100;100;100;
30;32;42;5;0;100;100;100;100;
30;32;42;4;0;100;100;100;100;
30;32;42;4;0;100;100;100;100;
30;32;42;4;0;0;100;100;100;
28;32;42;5;0;0;100;100;100;
28;32;42;5;0;100;100;100;100;
30;34;42;5;0;100;100;100;100;
30;34;42;5;100;100;100;100;100;
28;32;42;4;100;100;100;100;100;
30;34;42;4;100;100;100;100;100;
30;34;42;4;100;100;100;100;100;
30;34;42;4;100;100;100;100;100;
30;34;42;4;100;100;100;100;100;
30;34;42;4;100;100;100;100;100;
30;34;42;4;100;100;100;100;100;
30;34;42;4;100;100;100;100;100;
30;34;42;4;100;100;100;100;100;
30;34;42;4;100;100;100;100;100;
30;34;42;4;100;100;100;100;100;
30;34;42;4;100;100;100;100;100;
30;33;42;4;100;100;100;100;100;
30;33;42;4;100;100;100;100;100;
30;33;42;4;100;100;100;100;100;
30;33;42;4;100;100;100;100;100;
30;33;42;4;100;100;100;100;100;
30;33;42;4;100;100;100;100;100;
28;32;42;4;100;100;100;100;100;
28;32;42;4;100;100;100;100;100;
28;32;42;4;100;100;100;100;100;
28;32;42;4;100;100;100;100;100;
28;32;42;4;100;100;100;100;100;
28;32;42;4;100;100;100;100;100;
28;32;42;4;100;100;100;100;100;
28;32;42;4;100;100;100;100;100;
28;32;42;4;100;100;100;100;100;
28;32;42;4;100;100;100;100;100;
28;32;42;4;100;100;100;100;100;
28;32;42;4;100;100;100;100;100;
28;32;42;4;100;100;100;100;100;
28;32;42;4;100;100;100;100;100;
22;24;34;4;100;100;100;100;100;
22;24;34;4;100;100;100;100;100;
22;24;34;4;100;100;100;100;100;
22;24;34;4;100;100;100;100;100;
22;24;34;4;100;100;100;100;100;
22;24;34;4;100;100;100;100;100;
22;24;34;4;100;100;100;100;100;
22;24;34;4;100;100;100;100;100;
22;24;34;4;100;100;100;100;100;
28;26;34;3;100;100;100;100;100;
28;26;34;3;100;100;100;100;100;
28;26;34;3;100;100;100;100;100;
28;26;34;3;100;100;100;100;100;
28;26;34;3;100;100;100;100;100;
28;26;34;3;100;100;100;100;100;
28;26;34;3;100;100;100;100;100;
28;26;34;3;100;100;100;100;100;
28;26;34;3;100;100;100;100;100;
28;26;34;3;100;100;100;100;100;
28;26;34;3;100;100;100;100;100;
28;26;34;3;100;100;100;100;100;
28;26;34;3;100;100;100;100;100;
28;26;34;4;100;100;100;100;100;
28;26;34;4;100;100;100;100;100;
28;32;34;3;100;100;100;100;100;
28;32;34;3;100;100;100;100;100;
28;32;34;3;100;100;100;100;100;
28;32;34;3;100;100;100;100;100;
28;32;34;3;100;100;100;100;100;
28;32;34;3;100;100;100;100;100;
28;32;34;3;100;100;100;100;100;
28;32;34;3;100;100;100;100;100;
28;32;34;3;100;100;100;100;100;
28;32;34;3;100;100;100;100;100;
28;32;34;3;100;100;100;100;100;
28;32;34;3;100;100;100;100;100;
28;32;34;3;100;100;100;100;100;
28;32;34;3;100;100;100;100;100;
28;32;34;3;100;100;100;100;100;
28;32;34;3;100;100;100;100;100;
28;32;34;3;100;100;100;100;100;
28;32;34;3;100;100;100;100;100;
28;32;34;3;100;100;100;100;100;
28;32;34;3;100;100;100;100;100;
28;32;34;3;100;100;100;100;100;
28;32;34;3;100;100;100;100;100;
28;32;34;3;100;100;100;100;100;
28;32;34;3;100;100;100;100;100;
28;32;34;3;100;100;100;100;100;
28;32;34;3;100;100;100;100;100;
28;32;34;3;100;100;100;100;100;
28;32;34;3;100;100;100;100;100;
28;32;34;3;100;100;100;100;100;
28;32;34;3;100;100;100;100;100;
28;32;34;3;100;100;100;100;100;
28;32;34;3;100;100;100;100;100;
28;32;34;3;100;100;100;100;100;
28;32;34;3;100;100;100;100;100;
28;32;34;3;100;100;100;100;100;
28;32;34;3;100;100;100;100;100;
28;32;34;3;100;100;100;100;100;
28;32;34;3;100;100;100;100;100;
28;32;34;3;100;100;100;100;100;
28;32;34;3;100;100;100;100;100;
28;32;34;3;100;100;100;100;100;
28;32;34;3;100;100;100;100;100;
28;32;34;3;100;100;100;100;100;
28;32;34;3;100;100;100;100;100;
28;32;34;3;100;100;100;100;100;
28;32;34;3;100;100;100;100;100;
28;32;34;3;100;100;100;100;100;
22;26;35;3;100;100;100;100;100;
22;26;35;3;100;100;100;100;100;
22;26;35;3;100;100;100;100;100;
22;26;35;3;100;100;100;100;100;
22;26;35;3;100;100;100;100;100;
28;32;34;3;100;100;100;100;100;
28;32;34;3;100;100;100;100;100;
28;32;34;3;100;100;100;100;100;
28;32;34;3;100;100;100;100;100;
28;32;34;3;100;100;100;100;100;
28;32;34;3;100;100;100;100;100;
28;32;34;3;100;100;100;100;100;
28;32;34;3;100;100;100;100;100;
28;32;34;3;100;100;100;100;100;
28;32;34;3;100;100;100;100;100;
28;32;34;3;100;100;100;100;100;
28;32;34;3;100;100;100;100;100;
28;32;34;3;100;100;100;100;100;
28;32;34;3;100;100;100;100;100;
28;32;34;3;100;100;100;100;100;
28;32;34;3;100;100;100;100;100;
28;32;34;3;100;100;100;100;100;
28;32;34;3;100;100;100;100;100;
28;32;34;3;100;100;100;100;100;
28;32;34;3;100;100;100;100;100;
28;32;34;3;100;100;100;100;100;
28;32;34;3;100;100;100;100;100;
28;32;34;3;100;100;100;100;100;
28;32;34;3;100;100;100;100;100;
28;32;34;3;100;100;100;100;100;
28;32;34;3;100;100;100;100;100;
28;32;34;3;100;100;100;100;100;
28;32;34;3;100;100;100;100;100;
28;32;34;3;100;100;100;100;100;
28;32;34;3;100;100;100;100;100;
28;32;34;4;100;100;100;100;100;
28;32;34;4;100;100;100;100;100;
28;32;34;4;100;100;100;100;100;
28;32;34;4;100;100;100;100;100;
28;32;34;4;100;100;100;100;100;
28;32;34;4;100;100;100;100;100;
28;32;34;4;100;100;100;100;100;
28;32;34;4;100;100;100;100;100;
28;32;34;4;100;100;100;100;100;
28;32;34;4;100;100;100;100;100;
30;32;40;4;100;100;100;100;100;
30;32;40;4;100;100;100;100;100;
30;34;42;4;100;100;100;100;100;
30;34;42;4;100;100;100;100;100;
30;34;42;4;100;100;100;100;100;
30;34;42;4;100;100;100;0;100;
30;34;42;4;0;100;100;0;100;
30;34;42;4;0;100;100;0;100;
30;34;42;4;0;100;100;0;100;
30;34;42;4;0;100;100;0;100;
30;34;42;4;0;100;100;0;100;
30;34;42;4;0;100;100;0;100;
30;34;42;4;0;100;100;0;100;
30;34;42;4;0;0;100;0;100;
30;34;42;4;0;0;100;0;100;
30;34;42;4;0;0;0;0;100;
30;34;42;4;0;0;0;0;100;
30;34;42;4;0;0;0;0;100;
30;34;42;4;0;0;0;0;100;
28;32;42;4;0;0;0;0;100;
28;32;42;4;0;0;0;0;100;
28;32;42;4;0;0;0;0;100;
28;32;42;4;0;0;0;0;100;
28;32;42;4;0;0;0;0;100;
28;32;42;4;0;0;0;0;100;
28;32;42;4;0;0;0;0;100;
28;32;42;4;0;0;100;0;100;
28;32;42;4;0;100;100;0;100;
28;32;42;4;100;100;100;0;100;
28;32;42;4;0;100;100;0;100;
28;32;42;4;100;100;100;0;100;
28;32;42;4;100;0;100;0;100;
28;32;42;4;0;0;100;0;100;
28;32;42;4;100;0;100;0;100;
28;32;42;4;100;0;100;100;100;
28;32;42;4;0;0;100;100;100;
30;32;42;4;0;0;100;100;100;
30;32;42;5;0;0;100;100;100;
30;32;42;5;0;0;100;100;100;
30;32;42;5;0;0;100;0;100;
30;32;42;5;0;0;0;0;100;
30;35;47;5;0;0;0;0;100;
30;35;46;5;0;0;0;0;100;
30;35;46;5;0;0;0;0;100;
30;34;46;5;0;0;0;0;100;
30;34;46;5;0;0;100;0;100;
30;34;46;5;0;0;100;100;100;
30;34;46;5;0;100;100;100;100;
30;34;46;5;0;100;100;0;100;
30;34;46;5;0;100;100;100;100;
30;34;42;5;0;100;100;100;100;
30;34;42;5;0;100;100;0;100;
30;34;42;5;0;100;100;100;100;
28;34;46;5;0;100;100;100;100;
28;34;46;5;100;100;100;100;100;
28;34;46;5;100;100;100;0;100;
28;34;46;5;100;100;100;100;100;
28;32;46;5;100;100;100;100;100;
30;34;46;5;100;100;100;100;100;
30;34;46;5;100;100;100;0;100;
30;34;46;5;100;100;100;100;100;
30;38;50;5;100;100;100;100;100;
30;32;42;5;100;100;100;100;100;
30;32;42;5;100;100;100;0;100;
30;32;42;5;100;100;100;100;100;
36;38;46;5;100;100;100;100;100;
30;35;46;5;100;100;100;100;100;
28;32;43;5;100;100;100;100;100;
28;32;43;5;100;100;100;0;100;
28;32;43;5;100;100;100;100;100;
28;32;42;5;100;100;100;100;100;
30;32;42;4;100;100;100;100;100;
30;32;42;4;100;100;100;0;100;
30;32;42;4;100;100;100;100;100;
30;32;42;4;0;100;100;100;100;
30;32;42;4;0;0;100;100;100;
28;32;42;4;0;0;100;100;100;
28;32;42;4;0;0;100;100;100;
28;32;42;4;0;0;100;100;100;
28;32;40;4;0;0;100;100;100;
28;32;40;4;0;0;100;100;100;
28;32;40;4;0;0;100;100;100;
28;32;40;4;0;0;100;100;100;
28;32;40;4;0;0;100;100;100;
28;32;40;4;0;0;100;100;100;
28;32;40;4;0;0;100;100;100;
28;32;40;4;0;0;100;100;100;
28;32;40;4;0;0;100;100;100;
28;32;40;4;0;0;100;100;100;
28;32;40;4;0;0;100;100;100;
28;32;40;4;100;0;100;100;100;
28;32;40;4;100;100;100;100;100;
28;32;40;4;100;100;100;100;100;
28;32;40;4;0;100;100;100;100;
28;32;40;4;100;100;100;100;100;
28;32;40;4;0;100;100;100;100;
28;32;40;4;0;100;100;100;100;
28;32;40;4;100;100;100;100;100;
22;26;34;3;100;100;100;100;100;
22;26;34;3;0;100;100;100;100;
22;26;34;3;100;100;100;100;100;
22;26;34;3;100;100;100;100;100;
22;26;34;3;100;100;100;100;100;
22;26;34;3;100;100;100;100;100;
22;26;34;3;100;100;100;100;100;
28;32;35;3;100;100;100;100;100;
28;32;35;3;100;100;100;100;100;
28;32;35;3;100;100;100;100;100;
28;32;35;3;100;100;100;100;100;
28;32;35;3;100;100;100;100;100;
28;32;35;3;100;100;100;100;100;
28;27;34;4;100;100;100;100;100;
28;27;34;4;100;100;100;100;100;
28;27;34;4;100;100;100;100;100;
28;27;34;4;100;100;100;100;100;
28;32;40;4;100;100;100;100;100;
28;32;40;4;100;100;100;100;100;
28;32;40;4;100;100;100;100;100;
28;32;40;4;100;100;100;100;100;
28;32;40;4;100;100;100;100;100;
28;32;40;4;100;100;100;100;100;
28;32;40;4;100;0;100;100;100;
28;32;40;4;100;0;100;100;100;
28;32;40;4;100;0;100;100;100;
28;32;40;4;100;0;100;100;100;
28;32;40;4;100;0;100;100;100;
28;32;40;4;100;0;100;100;100;
28;32;40;4;100;0;100;100;100;
28;32;40;4;100;0;100;100;100;
28;32;40;4;100;0;100;100;100;
28;32;40;4;100;0;100;100;100;
28;32;40;3;100;0;100;100;100;
28;32;40;3;100;0;100;100;100;
28;32;40;3;100;0;100;100;100;
28;32;40;3;100;0;100;100;100;
28;32;40;3;100;0;100;100;100;
28;32;40;3;100;0;100;100;100;
28;32;40;3;100;0;100;100;100;
28;32;40;3;100;0;100;100;100;
28;32;40;3;100;0;100;100;100;
28;32;40;3;100;0;100;100;100;
28;32;40;3;100;0;100;100;100;
28;32;40;3;100;0;100;100;100;
28;32;42;4;100;0;100;100;100;
28;32;42;4;100;0;100;100;100;
28;32;42;4;100;0;100;100;100;
28;32;42;4;100;0;100;100;100;
28;32;42;4;100;0;0;100;100;
28;32;42;4;100;0;0;100;100;
28;32;42;4;100;0;0;0;100;
28;32;42;4;100;0;0;0;100;
28;32;42;4;0;0;0;0;100;
28;32;42;4;0;0;0;0;100;
30;32;40;4;0;0;0;0;100;
28;32;42;4;0;0;0;0;100;
28;32;42;4;0;0;0;0;100;
30;34;42;4;0;0;0;0;100;
30;34;42;4;0;0;100;0;100;
28;32;42;5;0;0;100;0;100;
28;32;42;5;0;0;100;0;100;
28;32;42;5;0;0;100;0;100;
28;32;42;5;0;0;100;0;100;
28;32;42;5;0;0;100;0;100;
28;32;42;5;0;0;0;0;100;
30;32;42;4;0;0;0;0;100;
30;32;42;4;0;0;0;0;100;
28;32;42;5;0;0;0;0;100;
30;34;46;5;0;0;0;0;100;
28;32;43;5;0;0;0;0;100;
30;35;46;5;0;0;0;0;100;
30;35;46;5;0;0;0;100;100;
30;34;46;5;0;0;0;100;100;
30;32;42;5;0;0;0;100;100;
30;34;46;5;0;0;0;100;100;
30;34;46;5;0;0;0;0;100;
30;34;46;5;0;0;0;0;100;
30;34;46;5;0;0;0;100;100;
30;34;46;5;0;0;0;0;100;
28;32;42;5;0;0;0;0;100;
28;32;42;5;0;0;0;100;100;
28;32;42;5;0;0;0;0;100;
30;34;46;5;0;0;0;0;100;
28;32;46;5;0;0;0;0;100;
28;32;46;5;0;0;0;100;100;
28;32;46;5;0;0;0;0;100;
28;32;46;5;0;0;0;100;100;
28;32;46;5;0;0;0;100;100;
28;32;46;5;0;0;0;0;100;
28;32;46;5;0;0;0;100;100;
28;32;46;5;0;0;0;0;100;
28;32;42;5;0;0;0;0;100;
28;32;42;5;0;0;0;100;100;
28;32;42;5;0;0;0;0;100;
30;32;42;4;0;0;0;0;100;
30;32;42;4;0;0;0;0;100;
30;32;42;4;0;0;0;100;100;
30;32;42;4;0;0;100;100;100;
30;32;42;4;0;0;100;0;100;
30;32;42;4;0;0;100;0;100;
30;32;42;4;0;0;0;0;100;
30;32;42;4;0;0;100;0;100;
30;32;42;4;0;0;0;0;100;
30;32;42;4;0;0;100;0;100;
28;32;40;4;0;0;100;0;100;
28;32;40;4;0;0;0;0;100;
28;32;34;3;0;0;0;0;100;
28;32;34;3;0;0;100;0;100;
28;32;34;3;0;0;0;0;100;
28;32;34;3;0;0;100;0;100;
28;32;34;4;0;0;100;0;100;
28;32;34;4;0;0;0;0;100;
28;32;34;3;0;0;0;0;100;
28;32;34;3;0;0;100;0;100;
28;32;34;3;0;0;0;0;100;
28;26;34;4;0;0;0;0;100;
28;26;34;4;0;0;100;0;100;
28;26;34;4;0;0;100;0;100;
30;32;40;3;0;0;100;0;100;
30;32;40;3;0;0;100;100;100;
28;32;40;3;0;0;100;100;100;
28;32;42;4;0;0;100;100;100;
28;32;42;4;0;0;100;100;100;
28;32;42;4;0;0;100;100;100;
28;32;42;4;0;0;100;100;100;
28;32;40;3;0;0;100;100;100;
28;32;40;3;0;0;100;100;100;
28;32;40;3;0;0;100;100;100;
28;32;40;3;0;0;100;100;100;
28;32;40;3;0;0;100;100;100;
28;32;42;4;0;0;100;100;100;
28;32;42;4;0;0;100;100;100;
28;32;42;4;0;0;100;100;100;
28;32;34;4;0;0;100;100;100;
28;32;34;4;0;0;100;100;100;
28;32;34;4;0;0;100;100;100;
28;32;34;4;0;0;100;100;100;
22;24;40;4;0;0;100;100;100;
22;24;40;4;0;0;100;100;100;
22;24;40;4;0;0;100;100;100;
28;32;34;4;0;0;100;100;100;
28;32;34;4;0;0;100;100;100;
28;32;34;4;0;0;100;100;100;
28;32;34;4;0;0;100;0;100;
28;32;34;4;0;0;0;0;100;
30;32;40;4;0;0;0;0;100;
30;32;42;4;0;0;0;0;100;
30;32;42;4;0;0;100;0;100;
30;32;42;4;0;0;100;0;100;
30;34;42;4;0;0;100;0;100;
28;32;42;5;0;0;100;0;100;
28;32;43;5;0;0;100;0;100;
30;32;42;5;0;0;100;0;100;
30;32;42;5;0;0;100;100;100;
28;33;46;5;0;0;100;100;100;
30;34;46;5;0;0;100;100;100;
30;34;46;5;0;0;0;100;100;
28;32;46;5;0;0;0;100;100;
28;32;46;5;0;0;0;100;100;
30;34;46;5;0;0;0;100;100;
30;34;46;5;0;0;100;100;100;
36;35;46;5;0;0;100;100;100;
32;35;47;5;0;0;100;100;100;
32;34;46;5;0;0;100;100;100;
32;34;46;5;0;0;100;100;100;
30;34;46;5;0;0;100;100;100;
30;35;46;5;0;0;100;100;100;
30;33;46;5;0;0;100;100;100;
36;34;42;4;0;0;100;100;100;
36;34;42;4;0;0;100;100;100;
36;34;42;4;0;0;100;100;100;
36;34;42;4;0;100;100;100;100;
36;34;42;4;0;100;100;100;100;
30;32;42;4;0;100;100;100;100;
30;32;42;4;100;100;100;100;100;
28;32;40;5;100;100;100;100;100;
28;32;42;5;100;100;100;100;100;
28;32;42;5;100;100;100;100;100;
28;32;42;5;100;100;100;100;100;
28;32;42;5;100;100;100;100;100;
28;32;42;5;100;100;100;100;100;
28;32;42;5;100;100;100;100;100;
28;32;42;5;100;100;100;100;100;
28;32;42;5;100;100;100;100;100;
28;32;42;5;100;100;100;100;100;
28;32;42;5;100;100;100;100;100;
30;32;42;4;100;100;100;100;100;
30;32;42;4;100;100;100;100;100;
30;32;40;4;100;100;100;100;100;
30;32;40;4;100;100;100;100;100;
30;32;40;4;100;100;100;100;100;
30;32;40;4;100;100;100;100;100;
30;32;40;4;100;100;100;100;100;
28;26;34;4;100;100;100;100;100;
28;26;34;4;100;100;100;100;100;
28;26;34;4;100;100;100;100;100;
28;26;34;4;100;100;100;100;100;
28;26;34;4;100;100;100;100;100;
28;26;34;4;0;100;100;100;100;
28;26;34;4;0;100;100;0;100;
28;26;34;4;0;0;100;0;100;
28;26;34;4;0;0;100;0;100;
28;26;34;4;0;0;0;0;100;
30;32;40;3;0;0;0;0;100;
30;32;34;3;0;0;0;0;100;
28;32;34;3;0;0;0;0;100;
28;32;34;3;0;0;0;100;100;
28;32;40;4;0;0;0;100;100;
28;32;42;4;0;0;0;100;100;
28;32;42;4;0;0;0;100;100;
28;32;40;4;0;0;0;100;100;
28;32;40;4;0;0;0;100;100;
28;32;40;4;0;0;0;100;100;
28;32;40;4;0;0;0;100;100;
28;32;40;4;0;0;0;100;100;
28;32;40;4;0;0;0;100;100;
30;32;35;4;0;0;0;100;100;
30;32;35;4;0;0;0;100;100;
30;32;35;4;0;0;0;100;100;
30;32;35;4;0;0;0;100;100;
30;32;35;4;0;0;0;100;100;
30;32;35;4;0;0;0;100;100;
30;32;35;4;0;0;100;100;100;
30;32;35;4;0;0;100;0;100;
28;32;40;4;0;0;100;0;100;
28;32;34;4;0;0;100;0;100;
28;32;34;4;0;0;100;0;100;
28;32;34;4;0;0;100;0;100;
28;32;34;4;0;0;100;0;100;
28;32;34;4;0;0;100;0;100;
28;32;34;4;0;0;100;0;100;
28;32;34;4;0;0;100;0;100;
28;32;34;4;0;0;100;0;100;
28;32;34;4;0;0;100;0;100;
28;32;34;4;0;0;100;0;100;
30;32;34;3;0;0;100;0;100;
30;32;34;3;0;0;100;0;100;
30;32;34;3;0;0;100;0;100;
30;32;34;3;0;0;100;0;100;
30;32;34;3;0;0;100;0;100;
30;32;34;3;0;0;100;0;100;
30;32;34;3;0;0;100;0;100;
28;32;35;4;0;0;100;0;100;
28;32;35;4;0;0;100;0;100;
28;32;35;4;0;0;100;0;100;
28;32;35;4;0;0;100;0;100;
28;32;35;4;0;0;100;0;100;
28;32;42;4;0;0;100;0;100;
28;32;42;4;0;0;100;0;100;
28;32;42;4;0;0;100;0;100;
28;32;42;4;0;0;100;0;100;
28;32;42;4;0;0;100;0;100;
28;32;42;4;0;0;100;0;100;
28;32;42;4;0;0;100;0;100;
28;32;42;4;0;0;100;0;100;
28;32;42;4;0;0;100;0;100;
28;32;42;4;0;0;100;0;100;
28;32;42;4;0;0;100;0;100;
28;32;42;4;0;0;100;0;100;
28;32;42;4;0;0;100;0;100;
28;32;42;4;0;0;100;0;100;
28;32;42;4;0;0;100;0;100;
28;32;42;4;0;0;100;0;100;
28;32;42;4;0;0;100;0;100;
28;32;42;4;0;0;100;0;100;
28;32;42;4;0;0;100;0;100;
28;32;42;4;0;0;100;0;100;
28;32;42;4;0;0;100;0;100;
30;35;42;4;0;0;100;0;100;
30;35;42;4;0;0;100;0;100;
30;35;42;4;0;0;100;0;100;
30;35;42;4;0;0;100;0;100;
30;35;42;4;0;0;100;0;100;
30;35;42;4;0;0;100;0;100;
30;35;42;4;0;0;100;0;100;
30;35;42;4;0;0;100;0;100;
30;35;42;4;0;0;100;0;100;
30;35;42;4;0;0;100;0;100;
30;35;42;4;0;0;100;0;100;
30;35;42;4;0;0;100;0;100;
30;35;42;4;0;0;100;0;100;
30;35;42;4;0;0;100;0;100;
30;35;42;4;0;0;100;0;100;
30;35;42;4;0;0;100;0;100;
30;35;42;4;0;0;100;0;100;
30;35;42;4;0;0;100;0;100;
30;35;42;4;0;0;100;0;100;
30;35;42;4;0;0;100;0;100;
30;35;42;4;0;0;100;0;100;
30;35;42;4;0;0;100;0;100;
30;35;42;4;0;0;100;0;100;
30;35;42;4;0;0;100;0;100;
30;35;42;4;0;0;100;0;100;
30;35;42;4;0;0;100;0;100;
30;35;42;4;0;0;100;0;100;
30;35;42;4;0;0;100;0;100;
30;35;42;4;0;0;100;0;100;
30;35;42;4;0;0;100;0;100;
30;35;42;4;0;0;100;0;100;
30;35;42;4;0;0;100;0;100;
30;35;42;4;0;0;100;0;100;
30;35;42;4;0;0;100;0;100;
30;35;42;4;0;0;100;0;100;
30;35;42;4;0;0;100;0;100;
30;35;42;4;0;0;100;0;100;
30;35;42;4;0;0;100;0;100;
30;35;42;4;0;0;100;0;100;
30;35;42;4;0;0;100;0;100;
30;35;42;4;0;0;100;0;100;
30;35;42;4;0;0;100;0;100;
30;35;42;4;0;0;100;0;100;
30;35;42;4;0;0;100;0;100;
30;35;42;4;0;0;100;0;100;
30;35;42;4;0;0;100;0;100;
30;35;42;4;0;0;100;0;100;
30;35;42;4;0;0;100;0;100;
30;35;42;4;0;0;100;0;100;
30;35;42;4;0;0;100;0;100;
30;35;42;4;0;0;100;0;100;
30;35;42;4;0;0;100;0;100;
30;35;42;4;0;0;100;0;100;
30;35;42;4;0;0;100;0;100;
30;35;42;4;0;0;100;0;100;
30;35;42;4;0;0;100;0;100;
30;35;42;4;0;0;100;0;100;
30;35;42;4;0;0;100;0;100;
30;35;42;4;0;0;100;0;100;
30;35;42;4;0;0;100;0;100;
30;35;42;4;0;0;100;0;100;
30;35;42;4;0;0;100;0;100;
30;35;42;4;0;0;100;0;100;
30;35;42;4;0;0;100;0;100;
30;35;42;4;0;0;100;0;100;
30;35;42;4;0;0;100;0;100;
30;35;42;4;0;0;100;0;100;
30;35;42;4;0;0;100;0;100;
30;35;42;4;0;0;100;0;100;
30;35;42;4;0;0;100;0;100;
30;35;42;4;0;0;100;0;100;
30;35;42;4;0;0;100;0;100;
30;35;42;4;0;0;100;0;100;
28;32;42;5;0;0;100;0;100;
28;32;42;5;0;0;100;0;100;
28;32;42;5;0;0;100;0;100;
28;32;42;5;0;0;100;0;100;
28;32;42;5;0;0;100;0;100;
28;32;42;5;0;0;100;0;100;
28;32;42;5;0;0;100;0;100;
28;32;43;5;0;0;100;0;100;
28;32;43;5;0;0;100;0;100;
28;32;43;5;0;0;100;0;100;
28;32;43;5;0;0;100;0;100;
28;32;43;5;0;0;100;0;100;
30;32;42;5;0;0;100;0;100;
30;32;42;5;0;0;100;0;100;
30;32;42;5;0;0;100;0;100;
30;32;42;5;0;0;100;0;100;
30;32;42;5;0;0;100;0;100;
30;32;42;5;0;0;100;0;100;
30;32;42;5;0;0;100;0;100;
30;32;42;5;0;0;100;0;100;
30;32;42;5;0;0;100;0;100;
30;32;42;5;0;0;100;0;100;
30;32;42;5;0;0;100;0;100;
30;35;47;5;0;0;100;0;100;
30;35;47;5;0;0;100;0;100;
30;35;47;5;0;0;100;0;100;
30;35;47;5;0;0;100;0;100;
30;35;47;5;0;0;100;0;100;
30;35;47;5;0;0;100;0;100;
30;35;47;5;0;0;100;0;100;
30;35;47;5;0;0;100;0;100;
30;35;47;5;0;0;100;0;100;
30;35;47;5;0;0;100;0;100;
30;32;43;5;0;0;100;0;100;
30;32;43;5;0;0;100;0;100;
30;32;43;5;0;0;100;0;100;
30;32;43;5;0;0;100;0;100;
30;32;43;5;0;0;100;0;100;
30;32;42;5;0;0;100;0;100;
30;32;42;5;0;0;100;0;100;
30;32;42;5;0;0;100;0;100;
30;32;42;5;0;0;100;0;100;
30;35;46;5;0;0;100;0;100;
30;35;46;5;0;0;100;0;100;
30;35;46;5;0;0;100;0;100;
30;35;46;5;0;0;100;0;100;
30;34;43;5;0;0;100;0;100;
30;34;43;5;0;0;100;0;100;
30;34;43;5;0;0;100;0;100;
30;34;43;5;0;0;100;0;100;
30;34;43;5;0;0;100;0;100;
30;34;43;5;0;0;100;0;100;
30;34;43;5;0;0;100;0;100;
32;32;43;5;0;0;100;0;100;
32;32;43;5;0;0;100;0;100;
32;32;43;5;0;0;100;0;100;
32;32;43;5;0;0;100;0;100;
32;32;43;5;0;0;100;0;100;
32;32;43;5;0;0;100;0;100;
32;32;43;5;0;0;100;0;100;
32;32;43;5;0;0;100;0;100;
32;32;43;5;0;0;100;0;100;
32;32;43;5;0;0;100;0;100;
32;32;43;5;0;0;100;0;100;
32;32;43;5;0;0;100;0;100;
32;32;43;5;0;0;100;0;100;
32;32;43;5;0;0;100;0;100;
32;32;43;5;0;0;0;0;100;
28;32;42;5;0;0;0;0;100;
28;32;42;5;0;0;0;0;100;
28;32;42;5;0;0;0;0;100;
28;32;42;5;0;0;0;100;100;
28;32;42;5;0;0;0;100;100;
28;32;42;5;0;0;0;100;100;
28;32;42;5;0;0;0;100;100;
28;32;42;5;0;0;0;100;100;
30;32;40;4;0;0;0;100;100;
28;32;42;4;0;0;0;100;100;
28;32;42;4;0;0;0;100;100;
28;32;42;4;0;0;0;100;100;
28;32;42;4;0;0;0;100;100;
28;26;34;4;0;0;0;100;100;
28;26;34;4;0;0;0;100;100;
28;26;34;4;0;0;0;100;100;
28;26;34;4;0;0;0;100;100;
28;26;34;4;0;0;0;100;100;
28;26;34;4;0;0;0;100;100;
28;32;40;4;0;0;0;100;100;
28;32;40;4;0;0;0;100;100;
28;32;40;4;0;0;0;100;100;
28;32;40;4;0;0;0;100;100;
28;32;35;3;0;0;0;100;100;
28;32;35;3;0;0;0;100;100;
28;32;35;3;0;0;0;100;100;
28;32;35;3;0;0;0;100;100;
28;32;35;3;0;0;0;100;100;
30;32;34;3;0;0;0;100;100;
30;32;34;3;0;0;0;100;100;
30;32;34;3;0;0;0;100;100;
30;32;34;3;0;0;0;0;100;
30;32;34;3;0;100;0;0;100;
28;32;40;4;0;100;0;0;100;
28;32;40;4;0;0;0;0;100;
30;32;40;4;0;0;0;0;100;
30;32;40;4;0;0;0;0;100;
30;32;40;3;0;0;0;0;100;
30;32;40;3;0;0;100;0;100;
28;32;34;3;0;0;100;0;100;
28;32;34;3;0;0;100;0;100;
28;32;40;4;0;0;100;0;100;
28;32;40;4;0;100;100;0;100;
30;35;42;4;0;100;100;0;100;
30;35;42;4;0;100;100;0;100;
30;35;42;4;0;0;100;0;100;
28;32;42;4;0;0;100;0;100;
28;32;42;4;0;100;100;0;100;
28;32;42;4;0;100;100;0;100;
28;32;42;4;0;0;100;0;100;
28;32;42;4;0;0;100;0;100;
28;32;42;4;0;0;100;0;100;
28;32;42;4;0;0;0;0;100;
30;32;43;5;0;0;0;0;100;
30;34;42;5;0;0;0;0;100;
28;32;43;5;0;0;0;0;100;
30;35;46;5;0;0;0;0;100;
30;35;46;5;0;0;0;0;100;
30;35;46;5;0;0;100;0;100;
30;35;46;5;0;100;100;0;100;
30;35;46;5;0;100;100;100;100;
28;34;47;5;0;100;100;100;100;
36;35;46;5;0;100;100;100;100;
36;35;46;5;100;100;100;100;100;
30;34;46;5;100;100;100;100;100;
28;32;47;5;100;100;100;100;100;
28;32;47;5;100;100;100;100;100;
28;32;47;5;100;100;100;100;100;
28;32;47;5;100;100;100;100;100;
28;32;47;5;100;100;100;100;100;
28;32;47;5;100;100;100;100;100;
30;35;47;5;100;100;100;100;100;
30;35;47;5;100;100;100;100;100;
30;35;46;5;100;100;100;100;100;
30;35;46;5;100;100;100;100;100;
30;35;46;5;100;100;100;100;100;
30;35;46;5;100;100;100;100;100;
28;32;43;5;100;100;100;100;100;
28;32;43;5;100;100;100;100;100;
28;32;43;5;100;100;100;100;100;
30;32;42;5;100;100;100;100;100;
30;32;42;5;100;100;100;100;100;
30;32;42;5;100;100;100;100;100;
30;32;42;5;100;100;100;100;100;
30;32;42;5;100;100;100;100;100;
30;32;42;5;100;100;100;100;100;
30;32;42;5;100;100;100;100;100;
30;32;42;5;100;100;100;100;100;
30;32;42;5;100;100;100;100;100;
30;32;42;5;100;100;100;100;100;
30;32;42;5;100;100;100;100;100;
30;32;42;5;100;100;100;100;100;
30;32;42;5;100;100;100;100;100;
30;32;42;5;100;100;100;100;100;
30;32;42;5;100;100;100;100;100;
30;32;42;5;100;100;100;100;100;
30;32;42;5;100;100;100;100;100;
28;34;46;5;100;100;100;100;100;
28;34;46;5;100;100;100;100;100;
28;34;46;5;100;100;100;100;100;
28;34;46;5;100;100;100;100;100;
28;34;46;5;100;100;100;100;100;
30;32;42;4;100;100;100;100;100;
30;32;42;4;100;100;100;100;100;
30;32;42;4;100;100;100;100;100;
30;32;42;4;100;100;100;100;100;
30;32;42;4;100;100;100;100;100;
30;32;42;4;100;100;100;100;100;
28;32;42;5;100;100;100;100;100;
28;32;42;5;100;100;100;100;100;
28;32;42;5;100;100;100;100;100;
28;32;42;5;100;100;100;100;100;
30;34;42;4;100;100;100;100;100;
30;34;42;4;100;100;100;100;100;
30;34;42;4;100;100;100;100;100;
30;34;42;4;100;100;100;100;100;
30;34;42;4;100;100;100;100;100;
30;34;42;4;100;100;100;100;100;
30;34;42;4;100;100;100;100;100;
30;32;40;4;100;100;100;100;100;
30;32;40;4;100;100;100;100;100;
30;32;40;4;100;100;100;100;100;
28;32;40;4;100;100;100;100;100;
28;32;40;4;100;100;100;100;100;
28;32;40;4;100;100;100;100;100;
28;32;40;4;100;100;100;100;100;
28;32;40;4;100;100;100;100;100;
28;32;40;4;100;100;100;100;100;
28;32;40;4;0;100;100;100;100;
30;32;40;4;0;100;100;100;100;
28;26;35;4;0;100;100;100;100;
28;26;35;4;0;100;100;100;100;
30;34;42;4;0;100;100;100;100;
30;34;42;4;0;100;100;0;100;
30;34;42;4;0;0;100;0;100;
30;34;42;4;0;0;0;0;100;
28;32;35;4;0;0;0;0;100;
30;32;35;3;0;0;0;0;100;
22;22;34;3;0;0;0;0;100;
28;26;34;3;0;0;0;0;100;
22;24;34;3;0;0;0;0;100;
28;26;34;3;0;0;0;0;100;
28;32;40;4;0;0;0;0;100;
28;32;40;4;0;0;0;0;100;
28;32;40;4;0;0;0;0;100;
30;32;42;4;0;0;0;0;100;
28;32;42;4;0;0;0;0;100;
28;32;42;4;0;0;0;0;100;
30;32;40;4;0;0;0;0;100;
30;32;42;4;0;0;0;0;100;
28;32;42;5;0;0;0;0;100;
36;38;46;5;0;0;0;0;100;
30;34;46;5;0;0;0;0;100;
30;34;47;5;0;0;0;0;100;
30;32;42;5;0;0;0;0;100;
30;32;43;5;0;0;0;0;100;
30;32;43;5;0;0;0;100;100;
30;34;46;5;0;0;0;100;100;
30;34;46;5;0;100;0;100;100;
32;35;46;5;0;100;0;100;100;
36;38;46;5;0;100;0;100;100;
36;34;46;5;0;100;0;100;100;
30;34;46;5;0;100;0;100;100;
30;34;42;4;0;100;0;100;100;
28;32;42;5;0;100;0;100;100;
28;32;42;5;0;100;0;100;100;
28;32;42;5;0;100;0;100;100;
28;32;42;5;0;100;0;100;100;
30;34;40;4;0;100;0;100;100;
30;34;40;4;0;100;0;100;100;
30;33;42;4;0;100;0;100;100;
30;33;42;4;0;100;0;100;100;
30;33;42;4;0;100;0;100;100;
30;33;42;4;0;100;0;100;100;
30;32;40;4;0;100;0;100;100;
30;32;40;4;0;100;0;100;100;
30;32;42;4;0;100;0;100;100;
30;33;40;3;0;100;0;100;100;
30;32;40;4;0;100;0;100;100;
30;32;42;4;0;100;0;100;100;
30;32;42;4;0;100;0;100;100;
30;32;42;4;0;100;0;100;100;
30;32;42;4;0;100;0;100;100;
30;32;42;4;0;100;0;100;100;
30;32;42;4;0;100;0;100;100;
30;32;42;4;0;100;0;100;100;
30;32;42;4;0;100;0;100;100;
30;32;42;4;0;100;0;100;100;
30;32;42;4;0;100;0;100;100;
28;32;34;4;0;100;0;100;100;
28;32;34;4;0;100;0;100;100;
28;32;34;4;0;100;0;100;100;
28;32;34;4;0;100;0;100;100;
28;32;34;4;0;100;0;100;100;
28;32;34;4;0;100;0;100;100;
28;32;34;4;0;100;0;100;100;
28;32;34;4;0;100;0;100;100;
28;32;34;4;0;100;0;100;100;
28;32;34;4;0;100;0;100;100;
28;32;34;4;0;100;0;100;100;
28;32;34;4;0;100;0;100;100;
28;32;34;4;0;100;0;100;100;
28;32;34;4;0;100;0;100;100;
28;32;34;4;0;100;0;100;100;
28;32;34;4;0;100;0;100;100;
28;32;34;4;0;100;0;100;100;
28;32;34;4;0;100;0;100;100;
28;32;34;4;0;100;0;100;100;
28;32;40;4;0;100;0;100;100;
28;32;40;4;0;100;0;100;100;
28;32;40;4;0;100;0;100;100;
28;32;40;4;0;100;0;100;100;
28;32;40;4;0;100;0;100;100;
28;32;40;4;0;100;0;100;100;
28;32;40;4;0;100;0;100;100;
28;32;40;4;0;100;0;100;100;
28;32;40;4;0;100;0;100;100;
28;32;40;4;0;100;0;100;100;
28;32;40;4;0;100;0;100;100;
28;32;40;4;0;100;0;100;100;
28;32;40;4;0;100;0;100;100;
28;32;40;4;0;100;0;100;100;
28;32;40;4;0;100;0;100;100;
28;32;40;4;0;100;0;100;100;
28;32;40;4;0;100;0;100;100;
28;32;40;4;0;0;0;100;100;
28;32;40;4;0;0;0;0;100;
30;32;40;4;0;0;0;0;100;
28;32;34;4;0;0;0;0;100;
28;32;34;4;0;0;0;100;100;
28;32;34;4;0;0;0;100;100;
28;32;34;4;0;100;0;100;100;
30;32;40;4;0;100;0;100;100;
30;32;42;4;0;100;0;100;100;
28;32;42;4;0;100;0;100;100;
28;32;42;4;0;100;0;100;100;
30;34;43;5;0;100;0;100;100;
30;34;43;5;0;100;100;100;100;
30;34;43;5;100;100;100;100;100;
30;34;43;5;100;100;100;100;100;
30;34;43;5;100;100;100;100;100;
30;34;43;5;100;100;100;100;100;
30;34;43;5;100;100;100;100;100;
30;34;43;5;100;100;100;100;100;
30;34;43;5;100;100;100;100;100;
30;34;43;5;100;100;100;100;100;
30;34;43;5;100;100;100;100;100;
30;34;43;5;100;100;100;100;100;
30;34;43;5;100;100;100;100;100;
30;34;43;5;100;100;100;100;100;
30;34;43;5;100;100;100;100;100;
30;34;43;5;100;100;100;100;100;
30;32;43;4;100;100;100;100;100;
30;32;43;4;100;100;100;100;100;
30;32;43;4;100;100;100;100;100;
30;32;43;4;100;100;100;100;100;
30;32;43;4;100;100;100;100;100;
30;32;43;4;100;100;100;100;100;
31;38;46;5;100;100;100;100;100;
31;38;46;5;100;100;100;100;100;
31;38;46;5;100;100;100;100;100;
31;38;46;5;100;100;100;100;100;
31;38;46;5;100;100;100;100;100;
31;38;46;5;100;100;100;100;100;
31;38;46;5;100;100;100;100;100;
31;38;46;5;100;100;100;100;100;
31;38;46;5;100;100;100;100;100;
31;38;46;5;100;100;100;100;100;
31;38;46;5;100;100;100;100;100;
31;38;46;5;100;100;100;100;100;
31;38;46;5;100;100;100;100;100;
31;38;46;5;100;100;100;100;100;
28;32;46;5;100;100;100;100;100;
28;32;46;5;100;100;100;100;100;
28;32;46;5;100;100;100;100;100;
28;32;46;5;100;100;100;100;100;
30;34;47;5;100;100;100;100;100;
30;34;47;5;100;100;100;100;100;
30;34;47;5;100;100;100;100;100;
30;34;47;5;100;100;100;100;100;
36;40;50;5;100;100;100;100;100;
36;40;50;5;100;100;100;100;100;
36;40;50;5;100;100;100;100;100;
36;40;50;5;100;100;100;100;100;
36;40;50;5;100;100;100;100;100;
36;40;50;5;100;100;100;100;100;
36;40;50;5;100;100;100;100;100;
32;34;43;5;100;100;100;100;100;
32;34;43;5;100;100;100;100;100;
32;34;43;5;100;100;100;100;100;
32;34;43;5;100;100;100;100;100;
32;34;43;5;100;100;100;100;100;
32;34;43;5;100;100;100;100;100;
32;34;43;5;100;100;100;100;100;
32;34;43;5;100;100;100;100;100;
30;34;47;5;100;100;100;100;100;
30;34;47;5;100;100;100;100;100;
30;34;47;5;100;100;100;100;100;
28;32;46;5;100;100;100;100;100;
28;32;46;5;100;100;100;100;100;
28;32;46;5;100;100;100;100;100;
28;32;46;5;100;100;100;100;100;
28;32;46;5;100;100;100;100;100;
28;32;46;5;100;100;100;100;100;
28;32;46;5;100;100;100;100;100;
28;32;46;5;100;100;100;100;100;
28;32;46;5;100;100;100;100;100;
28;32;46;5;100;100;100;100;100;
28;34;47;5;100;100;100;100;100;
28;34;47;5;100;100;100;100;100;
28;34;47;5;100;100;100;100;100;
28;34;47;5;100;100;100;100;100;
28;34;47;5;100;100;100;100;100;
30;32;46;5;100;100;100;100;100;
30;32;46;5;100;100;100;100;100;
30;32;46;5;100;100;100;100;100;
30;32;46;5;100;100;100;100;100;
30;32;46;5;100;100;100;100;100;
30;32;43;5;100;100;100;100;100;
30;32;43;5;100;100;100;100;100;
30;32;43;5;100;100;100;100;100;
30;32;43;5;100;100;100;100;100;
30;32;43;5;100;100;100;100;100;
30;32;43;5;100;100;100;100;100;
30;32;43;5;100;100;100;100;100;
30;32;43;5;100;100;100;100;100;
30;32;43;5;100;100;100;100;100;
30;32;43;5;100;100;100;100;100;
30;32;42;5;100;100;100;100;100;
30;32;42;5;100;100;100;100;100;
30;32;42;5;100;100;100;100;100;
30;32;42;5;100;100;100;100;100;
30;32;42;5;100;100;100;100;100;
30;32;42;5;100;100;100;100;100;
30;32;42;5;100;100;100;100;100;
30;32;42;5;100;100;100;100;100;
30;32;42;5;100;100;100;100;100;
30;32;42;5;100;100;100;100;100;
30;35;46;5;100;100;100;100;100;
30;35;46;5;100;100;100;100;100;
30;35;46;5;100;100;100;100;100;
30;35;46;5;100;100;100;100;100;
30;35;46;5;100;100;100;100;100;
30;35;46;5;100;100;100;100;100;
30;35;46;5;100;100;100;100;100;
30;35;46;5;100;100;100;100;100;
30;35;46;5;100;100;100;100;100;
30;35;46;5;100;100;100;100;100;
30;35;46;5;100;100;100;100;100;
28;32;42;5;100;100;100;100;100;
28;32;42;5;100;100;100;100;100;
28;32;43;5;100;100;100;100;100;
28;32;43;5;100;100;100;100;100;
28;32;43;5;100;100;100;100;100;
28;32;43;5;100;100;100;100;100;
28;32;43;5;100;100;100;100;100;
28;32;43;5;100;100;100;100;100;
28;32;43;5;100;100;100;100;100;
28;32;43;5;100;100;100;100;100;
28;32;43;5;100;100;100;100;100;
30;32;42;4;100;100;100;100;100;
30;32;42;4;0;100;100;100;100;
28;32;40;4;0;100;100;100;100;
28;32;42;4;0;100;100;100;100;
28;32;42;4;0;100;100;100;100;
28;32;42;4;100;100;100;100;100;
28;32;40;4;100;100;100;100;100;
28;24;34;4;100;100;100;100;100;
28;32;34;4;100;100;100;100;100;
28;32;34;4;100;100;100;100;100;
28;32;34;4;100;100;100;100;100;
28;32;34;4;100;100;100;100;100;
28;32;34;4;100;100;100;100;100;
28;32;34;4;100;100;100;100;100;
28;32;34;4;100;100;100;100;100;
28;32;34;4;100;100;100;100;100;
28;26;34;4;100;100;100;100;100;
28;26;34;4;100;100;100;100;100;
28;26;34;4;100;100;100;100;100;
28;26;34;4;100;100;100;100;100;
28;26;34;4;0;100;100;100;100;
28;32;40;3;0;100;100;100;100;
30;32;34;3;0;100;100;100;100;
30;32;34;3;100;100;100;100;100;
28;32;38;4;100;100;100;100;100;
28;32;38;4;0;100;100;100;100;
28;32;40;4;0;100;100;100;100;
28;32;40;4;100;100;100;100;100;
28;32;40;4;0;100;100;100;100;
28;32;40;4;0;100;100;100;100;
30;32;40;4;0;100;100;100;100;
30;32;40;4;0;100;0;100;100;
30;32;40;4;0;100;0;100;100;
30;32;40;4;0;0;0;100;100;
30;32;40;4;0;0;0;0;100;
28;32;42;4;0;0;0;0;100;
28;32;42;4;0;0;0;0;100;
28;32;40;4;0;0;0;0;100;
28;32;42;4;0;0;0;0;100;
28;32;42;4;0;0;0;100;100;
28;32;42;4;0;0;0;100;100;
28;32;42;4;0;0;0;100;100;
28;32;42;4;0;0;0;100;100;
28;32;42;4;0;0;0;100;100;
28;32;42;4;0;0;0;100;100;
28;32;42;4;0;0;0;100;100;
28;32;42;4;0;0;0;100;100;
28;32;42;4;0;0;0;100;100;
28;32;42;4;0;0;0;100;100;
28;32;42;4;0;0;0;100;100;
30;34;46;5;0;0;0;100;100;
30;34;46;5;0;0;0;100;100;
30;34;46;5;0;0;0;100;100;
30;34;46;5;0;0;0;0;100;
30;34;46;5;0;0;0;0;100;
30;35;47;5;0;0;0;0;100;
30;35;47;5;0;0;100;0;100;
28;32;42;5;0;0;100;0;100;
28;32;42;5;0;0;100;100;100;
30;35;46;5;0;0;100;100;100;
30;35;46;5;0;0;100;100;100;
30;35;46;5;0;100;100;100;100;
30;35;46;5;0;100;100;100;100;
30;35;46;5;0;0;100;100;100;
32;32;42;5;0;0;100;100;100;
30;34;46;5;0;0;100;100;100;
28;35;47;5;0;0;100;100;100;
30;34;46;5;0;0;100;100;100;
34;35;46;5;0;0;100;100;100;
36;38;46;5;0;0;100;100;100;
30;34;46;5;0;0;100;100;100;
28;32;42;5;0;0;100;100;100;
30;32;42;5;0;0;100;100;100;
30;32;42;5;0;0;100;0;100;
30;32;42;5;0;0;100;0;100;
30;32;42;5;0;0;100;100;100;
30;32;42;5;100;0;100;100;100;
28;32;42;4;100;0;100;100;100;
28;32;42;4;0;0;100;100;100;
28;32;40;4;0;0;100;100;100;
24;26;40;4;0;0;100;100;100;
24;26;40;4;100;0;100;100;100;
28;24;34;4;100;0;100;100;100;
22;24;34;3;100;0;100;100;100;
22;24;34;3;100;0;0;100;100;
22;24;34;3;100;0;0;100;100;
22;24;34;3;100;0;100;100;100;
28;32;34;3;100;0;100;100;100;
30;32;34;3;100;0;100;100;100;
28;32;34;3;100;0;100;100;100;
28;32;34;3;0;0;100;100;100;
28;32;34;3;0;0;100;100;100;
28;32;34;3;0;0;100;100;100;
28;32;34;3;0;0;100;100;100;
28;32;34;3;0;0;100;100;100;
28;32;34;3;0;0;100;100;100;
28;32;34;3;0;0;100;100;100;
28;32;34;3;0;0;100;100;100;
28;32;34;3;0;0;100;100;100;
28;32;34;3;0;0;100;100;100;
28;32;34;3;0;0;100;100;100;
28;32;34;3;0;0;100;100;100;
28;32;40;4;0;0;100;100;100;
28;32;40;4;0;0;100;100;100;
28;32;40;4;0;0;100;100;100;
28;32;40;4;0;0;100;100;100;
28;32;40;4;0;0;0;100;100;
28;32;40;4;0;0;0;0;100;
28;32;34;3;0;0;0;0;100;
28;26;34;3;0;0;0;0;100;
30;32;34;3;0;0;0;0;100;
30;32;34;3;0;0;100;0;100;
28;32;34;3;0;0;100;0;100;
28;32;34;3;0;0;100;0;100;
28;32;34;3;100;0;100;0;100;
28;32;42;4;100;0;100;0;100;
28;32;42;4;100;0;100;100;100;
28;32;42;4;100;100;100;100;100;
22;32;42;4;100;100;100;100;100;
28;32;42;4;100;100;100;100;100;
30;32;42;4;100;100;100;100;100;
30;32;42;4;100;100;100;100;100;
28;32;42;5;100;100;100;100;100;
28;32;42;5;100;100;100;100;100;
28;32;42;5;100;100;100;100;100;
28;32;42;5;100;100;100;100;100;
30;32;42;4;100;100;100;100;100;
30;32;42;4;100;100;100;100;100;
30;32;42;4;100;100;100;100;100;
30;32;42;4;100;100;100;100;100;
30;32;42;4;100;100;100;100;100;
30;32;42;4;100;100;100;100;100;
30;32;42;4;100;100;100;100;100;
30;32;42;4;100;100;100;100;100;
30;32;42;4;100;100;100;100;100;
30;32;42;4;100;100;100;100;100;
30;34;46;5;100;100;100;100;100;
30;34;46;5;100;100;100;100;100;
30;34;46;5;100;100;100;100;100;
30;34;46;5;100;100;100;100;100;
30;34;46;5;100;100;100;100;100;
30;34;46;5;100;100;100;100;100;
30;34;46;5;100;100;100;100;100;
32;34;42;5;100;100;100;100;100;
32;34;42;5;100;100;100;100;100;
32;34;42;5;100;100;100;100;100;
32;34;42;5;100;100;100;100;100;
30;35;46;5;100;100;100;100;100;
30;35;46;5;100;100;100;100;100;
30;35;46;5;100;100;100;100;100;
30;35;46;5;100;100;100;100;100;
30;35;46;5;100;100;100;100;100;
30;35;46;5;100;100;100;100;100;
30;35;46;5;100;100;100;100;100;
30;35;46;5;100;100;100;100;100;
30;35;46;5;100;100;100;100;100;
30;35;46;5;100;100;100;100;100;
30;35;46;5;100;100;100;100;100;
30;35;46;5;100;100;100;100;100;
30;35;47;5;100;100;100;100;100;
30;35;47;5;100;100;100;100;100;
30;35;47;5;100;100;100;100;100;
30;35;47;5;100;100;100;100;100;
30;35;47;5;100;100;100;100;100;
30;35;47;5;100;100;100;100;100;
30;35;47;5;100;100;100;100;100;
30;35;47;5;100;100;100;100;100;
30;35;47;5;100;100;100;100;100;
30;35;47;5;100;100;100;100;100;
30;35;47;5;100;100;100;100;100;
30;35;47;5;100;100;100;100;100;
30;34;46;5;100;100;100;100;100;
30;34;46;5;100;100;100;100;100;
30;34;46;5;100;100;100;100;100;
30;34;46;5;100;100;100;100;100;
30;34;46;5;100;100;100;100;100;
28;32;46;5;100;100;100;100;100;
28;32;46;5;100;100;100;100;100;
28;32;46;5;100;100;100;100;100;
28;32;46;5;100;100;100;100;100;
28;32;46;5;100;100;100;100;100;
28;32;46;5;100;100;100;100;100;
28;32;46;5;100;100;100;100;100;
28;32;46;5;100;100;100;100;100;
28;32;46;5;100;100;100;100;100;
28;32;46;5;100;100;100;100;100;
28;32;46;5;100;100;100;100;100;
28;32;46;5;100;100;100;100;100;
28;32;46;5;100;100;100;100;100;
28;32;46;5;100;100;100;100;100;
28;32;46;5;100;100;100;100;100;
28;32;46;5;100;100;100;100;100;
28;32;46;5;100;100;100;100;100;
28;32;46;5;100;100;100;100;100;
28;32;46;5;100;100;100;100;100;
28;32;46;5;100;100;100;100;100;
28;32;46;5;100;100;100;100;100;
28;32;46;5;100;100;100;100;100;
28;32;46;5;100;100;100;100;100;
28;32;46;5;100;100;100;100;100;
28;32;46;5;100;100;100;100;100;
28;32;46;5;100;100;100;100;100;
30;34;47;5;100;100;100;100;100;
30;34;47;5;100;100;100;100;100;
30;34;47;5;100;100;100;100;100;
30;34;47;5;100;100;100;100;100;
30;34;47;5;0;100;100;100;100;
30;34;47;5;0;100;100;100;100;
30;34;47;5;0;100;100;100;100;
30;34;47;5;0;100;100;0;100;
36;34;42;5;0;100;100;0;100;
30;34;43;5;0;100;100;0;100;
30;34;43;5;0;100;100;0;100;
30;34;43;5;0;100;0;0;100;
30;34;43;5;0;100;0;0;100;
30;34;43;5;0;100;0;0;100;
30;34;43;5;0;100;0;0;100;
30;34;43;5;0;100;100;0;100;
30;34;43;5;100;100;100;0;100;
30;34;43;5;100;100;0;0;100;
30;34;43;5;0;100;0;0;100;
28;32;46;5;0;100;0;0;100;
28;32;46;5;100;100;0;0;100;
28;32;46;5;100;100;100;0;100;
36;39;47;5;100;100;100;0;100;
30;34;43;5;100;100;100;0;100;
22;32;46;5;100;100;100;0;100;
28;32;42;5;100;100;100;0;100;
28;32;42;4;100;100;100;0;100;
30;32;40;4;100;100;100;0;100;
28;32;40;4;100;100;100;0;100;
28;32;42;4;100;100;100;0;100;
28;32;34;3;100;100;100;0;100;
30;32;40;3;100;100;100;0;100;
30;32;40;3;100;100;100;0;100;
28;32;34;4;100;100;100;0;100;
28;32;42;4;100;100;100;0;100;
28;32;42;4;0;100;100;0;100;
28;32;42;4;100;100;100;0;100;
28;32;42;4;0;100;100;0;100;
28;26;34;4;0;100;100;0;100;
28;26;34;4;100;100;100;0;100;
28;32;35;4;100;100;100;0;100;
28;32;34;3;100;100;100;0;100;
28;32;42;4;100;100;100;0;100;
28;32;42;4;100;100;100;0;100;
28;32;42;4;0;100;100;0;100;
28;32;42;4;0;100;100;0;100;
28;32;40;4;0;100;100;0;100;
28;32;40;4;0;100;100;0;100;
28;32;40;4;0;100;100;0;100;
28;32;40;4;0;100;100;0;100;
28;32;40;4;0;100;100;0;100;
28;32;40;4;0;100;100;0;100;
28;32;42;4;0;100;100;0;100;
28;32;42;4;0;100;100;0;100;
28;32;42;4;0;100;100;0;100;
28;32;42;4;0;100;100;0;100;
28;32;42;5;0;100;100;0;100;
28;32;42;5;0;100;100;0;100;
28;32;42;5;0;100;100;0;100;
28;32;42;5;0;100;100;0;100;
28;32;42;5;0;100;100;0;100;
28;32;42;5;100;100;100;0;100;
28;32;42;5;0;100;100;0;100;
28;32;42;5;100;100;100;0;100;
28;32;42;5;100;100;100;0;100;
28;32;42;5;100;100;100;0;100;
28;32;42;5;100;100;100;0;100;
28;32;42;5;100;100;100;0;100;
28;32;42;5;100;100;100;0;100;
28;32;42;5;100;100;100;0;100;
28;32;42;5;100;100;100;0;100;
28;32;42;5;100;100;100;0;100;
28;32;42;5;100;100;100;0;100;
28;32;42;5;100;100;100;0;100;
28;32;42;5;100;100;100;0;100;
28;32;42;5;100;100;100;0;100;
28;32;42;5;100;100;100;0;100;
28;32;42;5;100;100;100;0;100;
28;32;42;5;100;100;100;0;100;
28;32;42;5;100;100;100;0;100;
28;32;42;5;100;100;100;0;100;
28;32;42;5;100;100;100;0;100;
28;32;42;5;100;100;100;0;100;
28;32;42;5;100;100;100;0;100;
28;32;42;5;100;100;100;0;100;
28;32;42;5;100;100;100;0;100;
28;32;42;5;100;100;100;0;100;
28;32;42;5;100;100;100;0;100;
28;32;42;5;100;100;100;0;100;
28;32;42;5;100;100;100;0;100;
28;32;42;5;100;100;100;0;100;
28;32;42;5;100;100;100;0;100;
28;32;42;5;100;100;100;0;100;
28;32;42;5;100;100;100;0;100;
28;32;42;5;100;100;100;0;100;
28;32;42;5;100;100;100;0;100;
28;32;42;5;100;100;100;0;100;
28;32;42;5;100;100;100;0;100;
28;32;42;5;100;100;100;0;100;
28;32;42;5;100;100;100;0;100;
28;32;42;5;100;100;100;0;100;
28;32;42;5;100;100;100;0;100;
28;32;42;5;100;100;100;0;100;
28;32;42;5;100;100;100;0;100;
28;32;42;5;100;100;100;0;100;
28;32;42;5;100;100;100;0;100;
28;32;42;5;100;100;100;0;100;
28;32;42;5;100;100;100;0;100;
28;32;42;5;100;100;100;0;100;
28;32;42;5;100;100;100;0;100;
28;32;42;5;100;100;100;0;100;
28;32;42;5;100;100;100;0;100;
28;32;42;5;100;100;100;0;100;
28;32;42;5;100;100;100;0;100;
28;32;42;5;100;100;100;0;100;
28;32;42;5;100;100;100;0;100;
28;32;42;5;100;100;100;0;100;
28;32;42;5;100;100;100;0;100;
28;32;42;5;100;100;100;0;100;
28;32;42;5;100;100;100;0;100;
28;32;42;5;100;100;100;0;100;
28;32;42;5;100;100;100;0;100;
28;32;42;5;100;100;100;0;100;
28;32;42;5;100;100;100;0;100;
28;32;42;5;0;100;100;0;100;
28;32;42;5;100;100;100;0;100;
28;32;42;5;0;100;100;0;100;
28;32;42;5;100;100;100;0;100;
28;32;42;5;0;100;100;0;100;
30;32;42;5;0;100;100;0;100;
30;32;42;5;100;100;100;0;100;
30;34;46;5;100;100;100;0;100;
28;32;46;5;100;100;100;0;100;
28;32;46;5;100;100;100;0;100;
28;32;46;5;100;100;100;0;100;
32;35;46;5;100;100;100;0;100;
32;35;46;5;100;100;100;0;100;
32;35;46;5;100;100;100;0;100;
32;35;46;5;100;100;100;0;100;
32;35;46;5;100;100;100;0;100;
32;35;46;5;100;100;100;0;100;
32;35;46;5;100;100;100;0;100;
32;35;46;5;100;100;100;0;100;
32;35;46;5;100;100;100;0;100;
32;35;46;5;100;100;100;0;100;
32;35;46;5;100;100;100;0;100;
30;34;46;5;100;100;100;0;100;
30;34;46;5;100;100;100;0;100;
30;34;46;5;100;100;100;0;100;
30;34;46;5;100;100;100;0;100;
30;34;46;5;100;100;100;0;100;
30;35;46;5;100;100;100;0;100;
30;35;46;5;100;100;0;0;100;
30;35;46;5;100;100;0;0;100;
30;35;46;5;100;100;0;0;100;
30;35;46;5;100;100;0;0;100;
30;35;46;5;100;100;0;0;100;
32;38;47;5;100;100;0;0;100;
32;38;47;5;100;100;0;0;100;
32;38;47;5;100;100;0;0;100;
32;38;47;5;100;100;0;0;100;
32;38;47;5;100;100;0;0;100;
32;38;47;5;100;100;0;0;100;
32;38;47;5;100;100;0;0;100;
32;38;47;5;100;100;0;0;100;
32;38;47;5;100;100;0;0;100;
30;35;46;5;100;100;0;0;100;
30;35;46;5;0;100;0;0;100;
30;35;46;5;0;0;0;0;100;
36;35;46;5;0;0;0;0;100;
28;34;47;5;0;0;0;0;100;
28;32;47;5;0;0;0;0;100;
30;34;46;5;0;0;0;0;100;
30;34;46;5;0;0;100;0;100;
30;34;46;5;100;0;100;0;100;
30;34;46;5;0;0;100;0;100;
30;34;46;5;100;0;100;0;100;
28;32;42;5;100;0;100;0;100;
28;32;42;5;100;0;100;0;100;
30;32;42;4;100;0;100;0;100;
30;32;42;4;100;0;100;100;100;
28;32;42;5;100;0;100;100;100;
28;32;42;5;100;0;100;100;100;
28;32;40;4;100;0;100;100;100;
28;32;34;3;100;0;100;100;100;
28;32;42;4;100;0;100;100;100;
28;32;42;4;100;0;100;100;100;
28;32;42;4;100;0;100;100;100;
28;32;42;4;100;0;100;100;100;
28;32;42;4;0;0;100;100;100;
28;32;42;4;0;0;100;100;100;
28;32;42;4;0;0;100;100;100;
28;32;42;4;0;0;100;100;100;
28;32;42;4;0;0;100;100;100;
28;32;42;4;0;0;100;100;100;
28;32;42;4;0;0;100;100;100;
28;32;40;4;0;0;100;100;100;
28;32;40;4;0;0;100;100;100;
28;32;40;4;0;0;100;100;100;
28;32;40;4;0;0;100;100;100;
28;32;40;4;0;0;100;100;100;
24;26;35;4;0;0;100;100;100;
24;26;35;4;0;0;100;100;100;
24;26;35;4;0;0;100;100;100;
24;26;35;4;0;0;100;100;100;
24;26;35;4;0;0;100;100;100;
24;26;35;4;0;0;100;100;100;
22;24;34;4;0;0;100;100;100;
22;24;34;4;0;0;100;100;100;
22;24;34;4;0;0;100;100;100;
28;32;34;3;0;0;100;100;100;
28;32;34;3;0;0;100;100;100;
28;32;34;3;0;0;100;0;100;
28;32;34;3;0;0;0;0;100;
22;26;35;4;0;0;0;0;100;
30;32;34;3;0;0;0;0;100;
28;32;40;4;0;0;0;0;100;
28;32;40;4;0;0;0;0;100;
28;32;40;4;0;0;100;0;100;
28;32;40;4;0;0;100;0;100;
28;32;35;4;0;0;100;0;100;
28;32;35;4;0;0;100;100;100;
28;32;40;4;0;0;100;100;100;
28;32;42;5;0;0;100;100;100;
30;34;42;4;0;0;100;100;100;
30;34;43;5;0;0;100;100;100;
30;34;43;5;0;0;100;100;100;
30;34;43;5;0;0;100;100;100;
30;34;43;5;0;0;100;100;100;
30;34;42;5;0;0;100;100;100;
30;34;42;5;0;0;100;100;100;
30;34;42;5;0;0;100;100;100;
30;32;42;5;0;0;100;100;100;
30;32;42;5;0;0;100;100;100;
30;32;42;5;0;0;100;100;100;
30;32;42;5;0;0;100;100;100;
30;32;42;5;0;0;100;100;100;
30;34;46;5;0;0;100;100;100;
30;34;46;5;0;0;100;100;100;
30;34;46;5;0;0;100;100;100;
30;34;46;5;0;0;100;100;100;
30;34;46;5;0;0;100;100;100;
30;34;47;5;0;0;100;100;100;
30;34;47;5;0;0;100;100;100;
30;34;47;5;0;0;100;100;100;
30;34;47;5;0;0;100;100;100;
30;34;47;5;0;0;100;100;100;
30;34;47;5;0;0;100;100;100;
30;34;47;5;0;0;100;100;100;
30;34;47;5;0;0;100;100;100;
30;34;47;5;0;0;100;100;100;
30;34;47;5;0;0;100;100;100;
30;34;47;5;0;0;100;100;100;
30;34;47;5;0;0;100;100;100;
30;34;47;5;0;0;100;0;100;
30;34;47;5;0;0;0;0;100;
30;34;47;5;0;0;100;0;100;
30;35;47;5;0;0;100;0;100;
34;38;47;5;0;0;100;0;100;
30;32;46;5;0;0;100;0;100;
30;32;46;5;0;0;100;0;100;
30;34;46;5;0;0;100;0;100;
30;34;46;5;0;0;100;0;100;
30;32;42;5;0;0;100;0;100;
28;32;42;5;0;0;100;0;100;
28;32;42;5;0;100;100;0;100;
28;32;42;5;0;100;100;0;100;
28;34;46;5;0;100;100;0;100;
28;32;43;5;0;100;100;0;100;
28;32;43;5;0;100;100;0;100;
28;32;43;5;0;100;100;0;100;
28;32;43;5;0;100;100;0;100;
28;32;43;5;0;100;100;0;100;
28;32;43;5;0;100;100;100;100;
28;32;43;5;100;100;100;100;100;
28;32;43;5;100;100;100;100;100;
28;32;43;5;100;100;100;100;100;
28;32;42;5;100;100;100;100;100;
28;32;42;5;100;100;100;100;100;
28;32;42;5;100;100;100;100;100;
28;32;42;5;100;100;100;100;100;
28;32;42;5;100;100;100;100;100;
28;32;42;5;100;100;100;100;100;
28;32;42;5;0;100;100;100;100;
28;32;42;4;0;100;100;100;100;
28;32;40;4;0;100;100;100;100;
28;26;34;4;0;100;100;100;100;
28;26;34;4;100;100;100;100;100;
28;32;40;4;100;100;100;100;100;
28;32;34;4;100;100;100;100;100;
28;32;34;3;100;100;100;100;100;
28;32;34;3;100;100;100;0;100;
28;32;34;3;0;100;100;0;100;
28;32;34;3;0;100;100;0;100;
28;32;34;3;0;100;100;0;100;
28;32;35;4;0;100;100;0;100;
22;26;34;4;0;100;100;0;100;
28;26;34;3;0;100;100;0;100;
28;26;34;3;0;100;100;0;100;
30;32;34;3;0;100;100;0;100;
28;32;40;4;0;100;100;0;100;
30;32;40;3;0;100;100;0;100;
28;32;42;4;0;100;100;0;100;
28;32;42;4;0;100;100;0;100;
28;32;40;4;0;100;100;0;100;
28;32;40;4;0;100;100;0;100;
28;32;40;4;0;100;100;0;100;
28;32;40;4;0;100;100;0;100;
36;34;40;4;0;100;100;0;100;
28;32;42;4;0;100;100;0;100;
28;32;42;4;0;100;100;0;100;
30;35;42;4;0;100;100;0;100;
30;35;42;4;0;100;100;0;100;
30;35;42;4;0;100;0;0;100;
30;35;42;4;0;100;0;0;100;
30;35;42;4;0;100;0;0;100;
30;35;42;4;0;100;0;0;100;
30;35;42;4;0;100;0;0;100;
30;35;42;4;0;100;0;0;100;
30;35;42;4;0;100;0;0;100;
30;35;42;4;0;100;0;0;100;
30;34;46;5;0;100;0;0;100;
30;34;46;5;0;100;0;0;100;
30;34;46;5;0;100;0;0;100;
30;34;46;5;0;100;0;0;100;
30;34;46;5;0;100;0;0;100;
30;34;46;5;0;100;0;0;100;
30;34;46;5;0;100;0;0;100;
30;34;46;5;0;100;0;0;100;
30;34;46;5;0;100;0;0;100;
30;34;46;5;0;100;0;0;100;
32;34;46;5;0;100;0;0;100;
32;34;46;5;0;100;100;0;100;
28;32;46;5;0;100;100;0;100;
30;34;43;5;0;100;100;0;100;
30;34;43;5;0;100;100;0;100;
30;32;43;5;0;100;100;0;100;
28;32;46;5;0;100;100;0;100;
28;32;46;5;100;100;100;0;100;
30;34;46;5;100;100;100;0;100;
30;34;46;5;0;100;100;0;100;
32;35;46;5;0;100;100;0;100;
32;35;46;5;0;100;100;0;100;
32;35;46;5;0;100;100;0;100;
32;35;46;5;0;100;100;0;100;
32;35;46;5;0;100;100;0;100;
32;35;46;5;0;100;100;0;100;
32;35;46;5;0;100;100;0;100;
28;32;46;5;0;100;100;0;100;
28;32;46;5;0;100;100;0;100;
28;32;46;5;0;100;100;0;100;
28;32;46;5;100;100;100;0;100;
28;32;43;5;100;100;100;0;100;
28;32;43;5;0;100;100;0;100;
30;35;47;5;0;100;100;0;100;
30;35;47;5;100;100;100;0;100;
30;35;47;5;0;100;100;0;100;
30;35;47;5;100;100;100;0;100;
30;35;47;5;0;100;100;0;100;
30;32;42;5;0;100;100;0;100;
30;32;42;5;0;100;100;0;100;
30;32;42;5;0;100;100;0;100;
30;32;42;5;0;0;100;0;100;
30;32;42;5;0;0;0;0;100;
30;34;42;5;0;0;0;0;100;
28;32;42;5;0;0;0;0;100;
28;32;42;5;0;0;0;0;100;
28;32;42;5;0;0;0;0;100;
28;32;42;5;0;0;0;0;100;
28;32;42;5;0;0;0;0;100;
28;32;42;5;0;0;0;0;100;
28;32;42;5;0;0;0;0;100;
28;32;42;5;0;0;0;0;100;
28;32;42;5;0;0;0;0;100;
28;32;42;5;0;0;0;0;100;
28;32;42;5;0;0;0;0;100;
28;32;40;4;0;0;0;0;100;
28;32;40;4;0;0;0;0;100;
28;32;40;4;0;0;0;0;100;
28;32;40;4;0;0;0;0;100;
28;32;40;4;0;0;0;0;100;
28;32;40;4;100;0;0;0;100;
28;32;42;4;100;0;0;0;100;
28;32;42;4;100;0;100;0;100;
28;32;42;4;100;0;100;100;100;
28;32;42;4;0;0;100;100;100;
30;32;40;4;0;0;100;100;100;
28;32;34;4;0;0;100;100;100;
28;32;40;4;0;0;100;100;100;
28;32;40;4;0;0;100;100;100;
28;32;34;3;0;0;100;100;100;
28;26;34;3;0;0;100;100;100;
28;32;34;3;0;0;100;100;100;
28;34;42;3;0;0;100;100;100;
28;26;34;3;0;0;100;100;100;
28;26;34;3;0;0;100;100;100;
28;26;34;3;0;0;100;100;100;
28;26;34;3;0;0;100;100;100;
28;26;34;3;0;0;100;100;100;
28;26;34;3;0;0;100;100;100;
28;26;34;3;0;0;100;100;100;
28;32;40;4;0;0;100;100;100;
28;32;40;4;0;0;100;100;100;
30;32;34;3;0;0;100;100;100;
30;32;34;3;0;0;100;100;100;
30;32;34;3;0;0;100;100;100;
30;32;34;3;0;0;100;100;100;
30;32;34;3;0;0;100;100;100;
30;32;34;3;0;0;100;100;100;
30;32;34;3;0;0;100;100;100;
30;32;34;3;0;0;100;100;100;
30;32;34;3;0;0;100;100;100;
30;32;34;3;0;0;100;100;100;
30;32;34;3;0;0;100;100;100;
30;32;34;3;0;100;100;100;100;
28;32;34;3;0;100;100;100;100;
30;34;40;3;0;100;100;100;100;
30;34;40;3;0;100;100;100;100;
28;32;42;4;0;100;100;100;100;
30;33;42;4;0;100;100;100;100;
28;32;42;5;0;100;100;100;100;
28;32;42;5;100;100;100;100;100;
28;32;42;5;100;100;100;100;100;
28;32;42;5;100;100;100;100;100;
28;32;42;5;100;100;100;100;100;
28;32;42;5;100;100;100;100;100;
28;32;42;5;100;100;100;100;100;
28;32;42;5;100;100;100;100;100;
28;32;42;5;100;100;100;100;100;
28;32;42;5;100;100;100;100;100;
28;32;42;5;100;100;100;100;100;
28;32;42;5;100;100;100;100;100;
28;32;42;5;100;100;100;100;100;
28;32;42;5;100;100;100;100;100;
28;32;42;5;100;100;100;100;100;
28;32;42;5;100;100;100;100;100;
28;32;42;5;100;100;100;100;100;
28;32;42;5;100;100;100;100;100;
28;32;42;5;100;100;100;100;100;
28;32;42;5;100;100;100;100;100;
28;32;42;5;100;100;100;100;100;
28;32;42;5;100;100;100;100;100;
28;32;42;5;100;100;100;100;100;
28;32;42;5;100;100;100;100;100;
28;32;42;5;100;100;100;100;100;
28;32;42;5;100;100;100;100;100;
28;32;42;5;100;100;100;100;100;
28;32;42;5;100;100;100;100;100;
28;32;42;5;100;100;100;100;100;
28;32;42;5;100;100;100;100;100;
28;32;42;5;100;100;100;100;100;
28;32;42;5;100;100;100;100;100;
28;32;42;5;100;100;100;100;100;
28;32;42;5;100;100;100;100;100;
28;32;42;5;100;100;100;100;100;
28;32;42;5;100;100;100;100;100;
28;32;42;5;100;100;100;100;100;
28;32;42;5;100;100;100;100;100;
28;32;42;5;100;100;100;100;100;
28;32;42;5;100;100;100;100;100;
28;32;42;5;100;100;100;100;100;
28;32;42;5;100;100;100;100;100;
28;32;42;5;100;100;100;100;100;
28;32;42;5;100;100;100;100;100;
28;32;42;5;100;100;100;100;100;
28;32;42;5;100;100;100;100;100;
28;32;42;5;100;100;100;100;100;
28;32;42;5;100;100;100;100;100;
28;32;42;5;100;100;100;100;100;
28;32;42;5;100;100;100;100;100;
28;32;42;5;100;100;100;100;100;
28;32;42;5;100;100;100;100;100;
28;32;42;5;100;100;100;100;100;
28;32;42;5;100;100;100;100;100;
28;32;42;5;0;100;100;100;100;
30;34;42;4;0;100;100;100;100;
28;32;42;5;0;100;100;100;100;
28;32;42;5;100;100;100;100;100;
28;32;43;5;100;100;100;100;100;
28;32;42;5;100;100;100;100;100;
28;32;42;5;0;100;100;100;100;
28;32;42;5;100;100;100;100;100;
28;32;46;5;100;100;100;100;100;
28;32;46;5;100;100;100;100;100;
28;32;46;5;100;100;100;100;100;
28;32;46;5;100;100;100;100;100;
28;32;46;5;100;100;100;100;100;
28;32;46;5;100;100;100;100;100;
28;32;46;5;100;100;100;100;100;
28;32;46;5;100;100;100;100;100;
28;32;46;5;100;100;100;100;100;
28;32;46;5;100;100;100;100;100;
28;32;46;5;100;100;100;100;100;
28;32;46;5;100;100;100;100;100;
28;32;46;5;100;100;100;100;100;
28;32;46;5;100;100;100;100;100;
28;32;46;5;100;100;100;100;100;
28;32;46;5;0;100;100;100;100;
30;32;43;5;0;100;100;100;100;
30;32;43;5;100;100;100;100;100;
30;32;43;5;0;100;100;100;100;
30;32;43;5;100;100;100;100;100;
36;35;43;5;100;100;100;100;100;
36;35;43;5;0;100;100;100;100;
36;35;43;5;100;100;100;100;100;
28;32;46;5;100;100;100;100;100;
28;32;46;5;100;100;100;100;100;
28;32;46;5;100;100;100;100;100;
28;32;46;5;100;100;100;100;100;
28;32;46;5;100;100;100;100;100;
28;32;46;5;100;100;100;100;100;
28;32;46;5;100;100;100;100;100;
28;32;46;5;100;100;100;100;100;
28;32;46;5;100;100;100;100;100;
28;32;46;5;100;100;100;100;100;
28;32;46;5;100;100;100;100;100;
28;32;46;5;100;100;100;100;100;
28;32;46;5;100;100;100;100;100;
28;32;46;5;100;100;100;100;100;
30;34;46;5;100;100;100;100;100;
30;34;46;5;100;100;100;100;100;
30;34;46;5;100;100;100;100;100;
30;34;46;5;100;100;100;100;100;
30;34;46;5;100;100;100;100;100;
30;34;46;5;100;100;100;100;100;
30;34;46;5;100;100;100;100;100;
30;38;50;5;100;100;100;100;100;
30;38;50;5;100;100;100;100;100;
30;32;42;5;100;100;100;100;100;
30;32;42;5;100;100;100;100;100;
30;32;42;5;100;100;100;100;100;
30;32;42;5;100;100;100;100;100;
30;32;42;5;100;100;100;100;100;
30;32;42;5;100;100;100;100;100;
30;32;42;5;100;100;100;100;100;
30;32;42;5;100;100;100;100;100;
30;32;42;5;100;100;100;100;100;
30;32;42;5;100;100;100;100;100;
30;32;42;5;100;100;100;100;100;
30;32;42;5;100;100;100;100;100;
30;32;42;5;100;100;100;100;100;
30;32;42;5;100;100;100;100;100;
30;32;42;5;100;100;100;100;100;
30;32;42;5;100;100;100;100;100;
30;32;42;5;100;100;100;100;100;
30;32;42;5;100;100;100;100;100;
30;32;42;5;100;100;100;100;100;
30;32;42;5;100;100;100;100;100;
30;32;42;5;100;100;100;100;100;
30;32;42;5;100;100;100;100;100;
36;38;46;5;100;100;100;100;100;
36;38;46;5;100;100;100;100;100;
36;38;46;5;100;100;100;100;100;
36;38;46;5;100;100;100;100;100;
36;38;46;5;100;100;100;100;100;
36;38;46;5;100;100;100;100;100;
36;38;46;5;100;100;100;100;100;
36;38;46;5;100;100;100;100;100;
36;38;46;5;100;100;100;100;100;
36;38;46;5;100;100;100;0;100;
36;38;46;5;100;100;100;0;100;
30;34;43;5;100;100;100;0;100;
30;34;43;5;100;100;100;0;100;
30;34;43;5;0;100;100;0;100;
30;34;43;5;0;100;0;0;100;
30;34;43;5;0;100;0;0;100;
30;34;43;5;0;100;0;0;100;
30;34;43;5;0;100;0;0;100;
30;34;43;5;0;100;0;0;100;
30;34;43;5;0;100;0;0;100;
30;34;43;5;0;100;0;0;100;
28;32;42;5;0;100;0;0;100;
28;32;42;5;0;100;0;0;100;
28;32;42;5;0;100;0;0;100;
28;32;42;5;0;100;0;0;100;
28;32;42;5;0;100;0;0;100;
28;32;42;5;0;100;0;0;100;
28;32;46;5;0;100;0;0;100;
28;32;46;5;0;100;0;0;100;
28;32;46;5;0;100;0;0;100;
28;32;46;5;0;100;0;0;100;
28;32;46;5;0;100;0;0;100;
28;32;46;5;0;100;0;0;100;
30;34;42;4;0;100;0;0;100;
30;34;42;4;100;100;0;0;100;
30;34;42;4;100;100;100;0;100;
28;32;42;4;100;100;100;0;100;
28;32;42;4;100;100;100;0;100;
28;32;42;4;0;100;100;0;100;
28;32;42;4;0;100;100;0;100;
28;32;42;4;100;100;100;0;100;
30;34;42;4;100;100;100;0;100;
22;26;42;4;100;100;100;0;100;
22;26;42;4;100;100;100;0;100;
22;26;42;4;100;100;100;0;100;
22;26;42;4;100;100;100;0;100;
22;26;42;4;100;100;100;0;100;
22;26;42;4;100;100;100;0;100;
22;26;42;4;100;100;100;0;100;
22;26;42;4;100;100;100;0;100;
22;26;35;4;100;100;100;0;100;
22;26;35;4;100;100;100;0;100;
22;26;35;4;100;100;100;0;100;
22;26;35;4;100;100;100;0;100;
22;26;35;4;100;100;100;0;100;
22;26;35;4;100;100;100;0;100;
22;26;35;4;100;100;100;0;100;
22;26;35;4;100;100;100;0;100;
22;26;35;4;100;100;100;0;100;
22;26;35;4;100;100;100;0;100;
22;26;35;4;100;100;100;0;100;
22;26;35;4;0;100;100;0;100;
28;32;42;4;0;100;100;0;100;
28;32;42;4;100;100;100;0;100;
28;32;40;4;100;100;100;0;100;
24;25;34;4;100;100;100;0;100;
24;25;34;4;0;100;100;0;100;
28;32;40;4;0;100;100;0;100;
30;32;40;3;0;100;100;0;100;
30;32;40;4;0;100;100;0;100;
28;34;42;4;0;100;100;0;100;
28;34;42;4;100;100;100;0;100;
28;32;42;4;100;100;100;0;100;
30;34;42;4;100;100;100;0;100;
30;34;42;4;100;100;100;0;100;
30;34;42;4;100;100;100;0;100;
30;34;42;4;100;100;100;0;100;
30;34;42;4;100;100;100;0;100;
30;34;42;4;100;100;100;0;100;
30;34;42;4;100;100;100;0;100;
30;34;42;4;100;100;100;0;100;
30;34;42;4;100;100;100;0;100;
30;34;42;4;100;100;100;0;100;
28;32;42;5;100;100;100;0;100;
28;32;42;5;100;100;100;0;100;
28;32;42;5;100;100;100;0;100;
28;32;42;5;100;100;100;0;100;
28;32;42;5;100;100;100;0;100;
28;32;42;5;100;100;100;0;100;
30;32;42;4;100;100;100;0;100;
30;32;42;4;100;100;100;0;100;
30;32;42;4;100;100;100;0;100;
30;32;42;4;100;100;100;0;100;
30;32;42;4;100;100;100;0;100;
30;32;42;4;100;100;100;0;100;
28;32;42;5;100;100;100;0;100;
28;32;42;5;100;100;100;0;100;
28;32;42;5;100;100;100;0;100;
28;32;42;5;100;100;100;0;100;
28;32;42;5;100;100;100;0;100;
30;33;42;4;100;100;100;0;100;
30;33;42;4;100;100;100;0;100;
30;33;42;4;100;100;100;0;100;
30;32;42;5;100;100;100;0;100;
30;32;42;5;100;100;100;0;100;
30;32;42;5;100;100;100;0;100;
30;32;42;5;100;100;100;0;100;
30;32;42;5;100;100;100;0;100;
30;32;42;5;100;100;100;0;100;
30;32;42;5;100;100;100;0;100;
30;32;42;5;100;100;100;0;100;
30;32;42;5;100;100;100;0;100;
30;32;42;5;100;100;100;0;100;
30;32;42;5;100;100;100;0;100;
30;32;42;5;100;100;100;0;100;
30;32;42;5;100;100;100;0;100;
28;35;47;5;100;100;100;0;100;
28;35;47;5;100;100;100;0;100;
28;35;47;5;100;100;100;0;100;
28;35;47;5;100;100;100;0;100;
30;32;42;5;100;100;100;0;100;
30;32;42;5;100;100;100;0;100;
30;32;42;5;100;100;100;0;100;
30;32;42;5;100;100;100;0;100;
30;32;42;5;100;100;100;0;100;
30;32;42;5;100;100;100;0;100;
28;32;46;5;100;100;100;0;100;
28;32;46;5;100;100;100;0;100;
28;32;46;5;100;100;100;0;100;
28;32;46;5;100;100;100;0;100;
28;32;46;5;100;100;100;0;100;
28;32;46;5;100;100;100;0;100;
28;32;46;5;100;100;100;0;100;
28;32;46;5;100;100;100;0;100;
28;32;46;5;100;100;100;0;100;
28;32;46;5;100;100;100;0;100;
28;32;46;5;100;100;100;0;100;
28;32;46;5;100;100;100;0;100;
28;32;46;5;100;100;100;0;100;
28;32;46;5;100;100;100;0;100;
32;35;47;5;100;100;100;0;100;
32;35;47;5;100;100;100;0;100;
32;35;47;5;100;100;100;0;100;
32;35;47;5;100;100;100;0;100;
32;35;47;5;100;100;100;0;100;
32;35;47;5;100;100;100;0;100;
32;35;47;5;100;100;100;0;100;
32;35;47;5;100;100;100;0;100;
32;35;47;5;100;100;100;0;100;
32;35;47;5;100;100;100;0;100;
36;38;46;5;100;100;100;0;100;
36;38;46;5;100;100;100;0;100;
36;38;46;5;100;100;100;0;100;
36;38;46;5;100;100;100;0;100;
36;38;46;5;100;100;100;0;100;
36;38;46;5;100;100;100;0;100;
36;38;46;5;100;100;100;0;100;
36;38;46;5;100;100;100;0;100;
36;38;46;5;100;100;100;0;100;
36;38;46;5;100;100;100;0;100;
36;38;46;5;100;100;100;0;100;
36;38;46;5;100;100;100;0;100;
36;38;46;5;100;100;100;0;100;
36;38;46;5;100;100;100;0;100;
36;38;46;5;100;100;100;0;100;
36;38;46;5;100;100;100;0;100;
36;38;46;5;100;100;100;0;100;
36;38;46;5;100;100;100;0;100;
30;32;43;5;100;100;100;0;100;
30;32;43;5;100;100;100;0;100;
30;32;43;5;100;100;100;0;100;
30;32;43;5;0;100;100;0;100;
30;34;47;5;0;100;100;0;100;
30;34;47;5;0;0;100;0;100;
28;33;46;5;0;0;100;0;100;
28;33;46;5;0;0;0;0;100;
30;32;42;5;0;0;0;0;100;
28;32;42;5;0;0;0;0;100;
28;32;42;5;0;0;0;0;100;
28;32;42;5;100;0;0;0;100;
30;34;42;5;100;0;0;0;100;
30;34;42;5;100;0;100;0;100;
28;32;42;4;100;0;100;0;100;
28;32;42;4;100;0;100;0;100;
28;32;42;4;100;0;100;0;100;
28;32;42;4;100;0;100;0;100;
28;32;42;4;100;0;100;0;100;
28;32;42;4;100;0;100;0;100;
28;32;42;4;100;0;100;0;100;
28;32;42;4;100;0;100;0;100;
28;32;42;4;100;0;100;0;100;
28;32;42;4;100;0;100;0;100;
30;32;42;4;100;0;100;0;100;
30;32;42;4;100;0;100;0;100;
30;32;42;4;100;0;100;0;100;
30;32;42;4;100;0;100;0;100;
30;32;42;4;100;0;100;0;100;
30;32;42;4;100;0;100;100;100;
28;32;42;4;100;0;100;100;100;
28;32;42;4;100;0;100;100;100;
28;32;42;4;100;0;100;100;100;
28;32;42;4;100;0;100;100;100;
28;32;42;4;100;0;100;100;100;
28;32;42;4;100;0;100;100;100;
28;32;42;4;100;0;100;100;100;
28;32;42;4;100;0;100;100;100;
28;32;42;4;100;0;100;100;100;
28;32;42;4;100;0;100;100;100;
28;32;42;4;100;0;100;100;100;
