## File generated by myo_cap software 
## Available from github.com/ddantas/myo_cap 
## Timestamp: 2019-02-04_16-21-25 
##  
## EMG capture settings 
##  
# sampleRate: 2000 
# channelsPerBoard: 4 
# nBoards: 1 
# bitsPerSample: 12 
# ch/%d;%d;%d;%d;lp/%d;%d;%d;%d;%d;%d;%d;%d;%d;%d;%d;%d;%d;%d;%d;
1;1;1;1;83;98;98;13;43;43;15;46;46;17;48;48;19;53;53;
2;2;2;2;83;98;98;13;43;43;15;46;46;17;48;48;19;53;53;
2;2;2;2;83;98;98;13;43;43;15;46;46;17;48;48;19;53;53;
2;2;2;2;83;98;98;13;43;43;15;46;46;17;48;48;19;53;53;
2;2;2;2;83;98;98;13;43;43;15;46;46;17;48;48;19;53;53;
2;2;2;2;83;98;98;13;43;43;15;46;46;17;48;48;19;53;53;
2;2;2;2;83;98;98;13;43;43;15;46;46;17;48;48;19;53;53;
2;2;2;2;79;96;96;16;47;47;20;51;51;21;53;53;25;59;59;
2;2;2;2;74;93;93;20;51;51;25;57;57;27;58;58;31;64;64;
2;2;2;2;74;93;93;20;51;51;25;57;57;27;58;58;31;64;64;
2;2;2;2;74;93;93;20;51;51;25;57;57;27;58;58;31;64;64;
2;2;2;2;74;93;93;20;51;51;25;57;57;27;58;58;31;64;64;
2;2;2;2;74;93;93;20;51;51;25;57;57;27;58;58;31;64;64;
2;2;2;2;74;93;93;20;51;51;25;57;57;27;58;58;31;64;64;
2;2;2;2;74;93;93;20;51;51;25;57;57;27;58;58;31;64;64;
2;2;2;2;74;93;93;20;51;51;25;57;57;27;58;58;31;64;64;
2;2;2;2;65;89;89;26;58;58;34;66;66;36;67;67;41;73;73;
2;2;2;2;65;89;89;26;58;58;34;66;66;36;67;67;41;73;73;
2;2;2;2;65;89;89;26;58;58;34;66;66;36;67;67;41;73;73;
2;2;2;2;65;89;89;26;58;58;34;66;66;36;67;67;41;73;73;
2;2;2;2;65;89;89;26;58;58;34;66;66;36;67;67;41;73;73;
2;2;2;2;65;89;89;26;58;58;34;66;66;36;67;67;41;73;73;
2;2;2;2;61;87;87;28;60;60;37;68;68;39;69;69;46;77;77;
2;2;2;2;61;87;87;28;60;60;37;68;68;39;69;69;46;77;77;
2;2;2;2;61;87;87;28;60;60;37;68;68;39;69;69;46;77;77;
2;2;2;2;61;87;87;28;60;60;37;68;68;39;69;69;46;77;77;
2;2;2;2;61;87;87;28;60;60;37;68;68;39;69;69;46;77;77;
2;2;2;2;58;86;86;29;61;61;40;70;70;42;71;71;50;79;79;
2;2;2;2;58;86;86;29;61;61;40;70;70;42;71;71;50;79;79;
2;2;2;2;58;86;86;29;61;61;40;70;70;42;71;71;50;79;79;
2;2;2;2;58;86;86;29;61;61;40;70;70;42;71;71;50;79;79;
2;2;2;2;58;86;86;29;61;61;40;70;70;42;71;71;50;79;79;
2;2;2;2;58;86;86;29;61;61;40;70;70;42;71;71;50;79;79;
2;2;2;2;58;86;86;29;61;61;40;70;70;42;71;71;50;79;79;
2;2;2;2;58;86;86;29;61;61;40;70;70;42;71;71;50;79;79;
2;2;2;2;58;86;86;29;61;61;40;70;70;42;71;71;50;79;79;
2;2;2;2;58;86;86;29;61;61;40;70;70;42;71;71;50;79;79;
2;2;2;2;58;86;86;29;61;61;40;70;70;42;71;71;50;79;79;
2;2;2;2;58;86;86;29;61;61;40;70;70;42;71;71;50;79;79;
2;2;2;2;58;86;86;29;61;61;40;70;70;42;71;71;50;79;79;
2;2;2;2;58;86;86;29;61;61;40;70;70;42;71;71;50;79;79;
2;2;2;2;58;86;86;29;61;61;40;70;70;42;71;71;50;79;79;
2;2;2;2;58;86;86;29;61;61;40;70;70;42;71;71;50;79;79;
2;2;2;2;58;86;86;29;61;61;40;70;70;42;71;71;50;79;79;
2;2;2;2;58;86;86;29;61;61;40;70;70;42;71;71;50;79;79;
2;2;2;2;58;86;86;29;61;61;40;70;70;42;71;71;50;79;79;
2;2;2;2;58;86;86;29;61;61;40;70;70;42;71;71;50;79;79;
2;2;2;2;58;86;86;29;61;61;40;70;70;42;71;71;50;79;79;
2;2;2;2;58;86;86;29;61;61;40;70;70;42;71;71;50;79;79;
2;2;2;2;58;86;86;29;61;61;40;70;70;42;71;71;50;79;79;
2;2;2;2;58;86;86;29;61;61;40;70;70;42;71;71;50;79;79;
2;2;2;2;58;86;86;29;61;61;40;70;70;42;71;71;50;79;79;
2;2;2;2;58;86;86;29;61;61;40;70;70;42;71;71;50;79;79;
2;2;2;2;58;86;86;29;61;61;40;70;70;42;71;71;50;79;79;
2;2;2;2;58;86;86;29;61;61;40;70;70;42;71;71;50;79;79;
2;2;2;2;58;86;86;29;61;61;40;70;70;42;71;71;50;79;79;
2;2;2;2;58;86;86;29;61;61;40;70;70;42;71;71;50;79;79;
2;2;2;2;58;86;86;29;61;61;40;70;70;42;71;71;50;79;79;
2;2;2;2;58;86;86;29;61;61;40;70;70;42;71;71;50;79;79;
2;2;2;2;58;86;86;29;61;61;40;70;70;42;71;71;50;79;79;
2;2;2;2;58;86;86;29;61;61;40;70;70;42;71;71;50;79;79;
2;2;2;2;58;86;86;29;61;61;40;70;70;42;71;71;50;79;79;
2;2;2;2;58;86;86;29;61;61;40;70;70;42;71;71;50;79;79;
2;2;2;2;58;86;86;29;61;61;40;70;70;42;71;71;50;79;79;
2;2;2;2;58;86;86;29;61;61;40;70;70;42;71;71;50;79;79;
2;2;2;2;58;86;86;29;61;61;40;70;70;42;71;71;50;79;79;
2;2;2;2;58;86;86;29;61;61;40;70;70;42;71;71;50;79;79;
2;2;2;2;58;86;86;29;61;61;40;70;70;42;71;71;50;79;79;
2;2;2;2;58;86;86;29;61;61;40;70;70;42;71;71;50;79;79;
2;2;2;2;58;86;86;29;61;61;40;70;70;42;71;71;50;79;79;
2;2;2;2;58;86;86;29;61;61;40;70;70;42;71;71;50;79;79;
2;2;2;2;58;86;86;29;61;61;40;70;70;42;71;71;50;79;79;
2;2;2;2;58;86;86;29;61;61;40;70;70;42;71;71;50;79;79;
2;2;2;2;58;86;86;29;61;61;40;70;70;42;71;71;50;79;79;
2;2;2;2;58;86;86;29;61;61;40;70;70;42;71;71;50;79;79;
2;2;2;2;58;86;86;29;61;61;40;70;70;42;71;71;50;79;79;
2;2;2;2;58;86;86;29;61;61;40;70;70;42;71;71;50;79;79;
2;2;2;2;58;86;86;29;61;61;40;70;70;42;71;71;50;79;79;
2;2;2;2;58;86;86;29;61;61;40;70;70;42;71;71;50;79;79;
2;2;2;2;58;86;86;29;61;61;40;70;70;42;71;71;50;79;79;
2;2;2;2;58;86;86;29;61;61;40;70;70;42;71;71;50;79;79;
2;2;2;2;58;86;86;29;61;61;40;70;70;42;71;71;50;79;79;
2;2;2;2;58;86;86;29;61;61;40;70;70;42;71;71;50;79;79;
2;2;2;2;58;86;86;29;61;61;40;70;70;42;71;71;50;79;79;
2;2;2;2;58;86;86;29;61;61;40;70;70;42;71;71;50;79;79;
2;2;2;2;58;86;86;29;61;61;40;70;70;42;71;71;50;79;79;
2;2;2;2;58;86;86;29;61;61;40;70;70;42;71;71;50;79;79;
2;2;2;2;58;86;86;29;61;61;40;70;70;42;71;71;50;79;79;
2;2;2;2;58;86;86;29;61;61;40;70;70;42;71;71;50;79;79;
2;2;2;2;58;86;86;29;61;61;40;70;70;42;71;71;50;79;79;
2;2;2;2;58;86;86;29;61;61;40;70;70;42;71;71;50;79;79;
2;2;2;2;53;84;84;31;63;63;43;72;72;46;74;74;55;82;82;
2;2;2;2;53;84;84;31;63;63;43;72;72;46;74;74;55;82;82;
2;2;2;2;53;84;84;31;63;63;43;72;72;46;74;74;55;82;82;
2;2;2;2;53;84;84;31;63;63;43;72;72;46;74;74;55;82;82;
2;2;2;2;53;84;84;31;63;63;43;72;72;46;74;74;55;82;82;
2;2;2;2;53;84;84;31;63;63;43;72;72;46;74;74;55;82;82;
2;2;2;2;53;84;84;31;63;63;43;72;72;46;74;74;55;82;82;
2;2;2;2;53;84;84;31;63;63;43;72;72;46;74;74;55;82;82;
2;2;2;2;53;84;84;31;63;63;43;72;72;46;74;74;55;82;82;
2;2;2;2;51;83;83;32;63;63;45;73;73;50;76;76;58;83;83;
2;2;2;2;51;83;83;32;63;63;45;73;73;50;76;76;58;83;83;
2;2;2;2;50;82;82;33;64;64;46;74;74;51;77;77;60;84;84;
2;2;2;2;50;82;82;33;64;64;46;74;74;51;77;77;60;84;84;
2;2;2;2;50;82;82;33;64;64;46;74;74;51;77;77;60;84;84;
2;2;2;2;50;82;82;33;64;64;46;74;74;51;77;77;60;84;84;
2;2;2;2;50;82;82;33;64;64;46;74;74;51;77;77;60;84;84;
2;2;2;2;50;82;82;33;64;64;46;74;74;51;77;77;60;84;84;
2;2;2;2;48;81;81;34;64;64;48;75;75;53;77;77;63;84;84;
2;2;2;2;48;81;81;34;64;64;48;75;75;53;77;77;63;84;84;
2;2;2;2;48;81;81;34;64;64;48;75;75;53;77;77;63;84;84;
2;2;2;2;48;81;81;34;64;64;48;75;75;53;77;77;63;84;84;
2;2;2;2;48;81;81;34;64;64;48;75;75;53;77;77;63;84;84;
2;2;2;2;48;81;81;34;64;64;48;75;75;53;77;77;63;84;84;
2;2;2;2;48;81;81;34;64;64;48;75;75;53;77;77;63;84;84;
2;2;2;2;48;81;81;34;64;64;48;75;75;53;77;77;63;84;84;
2;2;2;2;48;81;81;34;64;64;48;75;75;53;77;77;63;84;84;
2;2;2;2;48;81;81;34;64;64;48;75;75;53;77;77;63;84;84;
2;2;2;2;48;81;81;34;64;64;48;75;75;53;77;77;63;84;84;
2;2;2;2;48;81;81;34;64;64;48;75;75;53;77;77;63;84;84;
2;2;2;2;48;81;81;34;64;64;48;75;75;53;77;77;63;84;84;
2;2;2;2;48;81;81;34;64;64;48;75;75;53;77;77;63;84;84;
2;2;2;2;48;81;81;34;64;64;48;75;75;53;77;77;63;84;84;
2;2;2;2;48;81;81;34;64;64;48;75;75;53;77;77;63;84;84;
2;2;2;2;48;81;81;34;64;64;48;75;75;53;77;77;63;84;84;
2;2;2;2;48;81;81;34;64;64;48;75;75;53;77;77;63;84;84;
2;2;2;2;48;81;81;34;64;64;48;75;75;53;77;77;63;84;84;
2;2;2;2;48;81;81;34;64;64;48;75;75;53;77;77;63;84;84;
2;2;2;2;48;81;81;34;64;64;48;75;75;53;77;77;63;84;84;
2;2;2;2;48;81;81;34;64;64;48;75;75;53;77;77;63;84;84;
2;2;2;2;48;81;81;34;64;64;48;75;75;53;77;77;63;84;84;
2;2;2;2;48;81;81;34;64;64;48;75;75;53;77;77;63;84;84;
2;2;2;2;48;81;81;34;64;64;48;75;75;53;77;77;63;84;84;
2;2;2;2;48;81;81;34;64;64;48;75;75;53;77;77;63;84;84;
2;2;2;2;48;81;81;34;64;64;48;75;75;53;77;77;63;84;84;
2;2;2;2;48;81;81;34;64;64;48;75;75;53;77;77;63;84;84;
2;2;2;2;48;81;81;34;64;64;48;75;75;53;77;77;63;84;84;
2;2;2;2;48;81;81;34;64;64;48;75;75;53;77;77;63;84;84;
2;2;2;2;48;81;81;34;64;64;48;75;75;53;77;77;63;84;84;
2;2;2;2;48;81;81;34;64;64;48;75;75;53;77;77;63;84;84;
2;2;2;2;48;81;81;34;64;64;48;75;75;53;77;77;63;84;84;
2;2;2;2;47;80;80;34;65;65;50;76;76;55;78;78;64;85;85;
2;2;2;2;47;80;80;34;65;65;50;76;76;55;78;78;64;85;85;
2;2;2;2;47;80;80;34;65;65;50;76;76;55;78;78;64;85;85;
2;2;2;2;47;80;80;34;65;65;50;76;76;55;78;78;64;85;85;
2;2;2;2;47;80;80;34;65;65;50;76;76;55;78;78;64;85;85;
2;2;2;2;47;80;80;34;65;65;50;76;76;55;78;78;64;85;85;
2;2;2;2;47;80;80;34;65;65;50;76;76;55;78;78;64;85;85;
2;2;2;2;47;80;80;34;65;65;50;76;76;55;78;78;64;85;85;
2;2;2;2;47;80;80;34;65;65;50;76;76;55;78;78;64;85;85;
2;2;2;2;47;80;80;34;65;65;50;76;76;55;78;78;64;85;85;
2;2;2;2;47;80;80;34;65;65;50;76;76;55;78;78;64;85;85;
2;2;2;2;47;80;80;34;65;65;50;76;76;55;78;78;64;85;85;
2;2;2;2;47;80;80;34;65;65;50;76;76;55;78;78;64;85;85;
2;2;2;2;47;80;80;34;65;65;50;76;76;55;78;78;64;85;85;
2;2;2;2;47;80;80;34;65;65;50;76;76;55;78;78;64;85;85;
2;2;2;2;47;80;80;34;65;65;50;76;76;55;78;78;64;85;85;
2;2;2;2;47;80;80;34;65;65;50;76;76;55;78;78;64;85;85;
2;2;2;2;47;80;80;34;65;65;50;76;76;55;78;78;64;85;85;
2;2;2;2;47;80;80;34;65;65;50;76;76;55;78;78;64;85;85;
2;2;2;2;47;80;80;34;65;65;50;76;76;55;78;78;64;85;85;
2;2;2;2;47;80;80;34;65;65;50;76;76;55;78;78;64;85;85;
2;2;2;2;47;80;80;34;65;65;50;76;76;55;78;78;64;85;85;
2;2;2;2;47;80;80;34;65;65;50;76;76;55;78;78;64;85;85;
2;2;2;2;47;80;80;34;65;65;50;76;76;55;78;78;64;85;85;
2;2;2;2;47;80;80;34;65;65;50;76;76;55;78;78;64;85;85;
2;2;2;2;47;80;80;34;65;65;50;76;76;55;78;78;64;85;85;
2;2;2;2;47;80;80;34;65;65;50;76;76;55;78;78;64;85;85;
2;2;2;2;47;80;80;34;65;65;50;76;76;55;78;78;64;85;85;
2;2;2;2;47;80;80;34;65;65;50;76;76;55;78;78;64;85;85;
2;2;2;2;47;80;80;34;65;65;50;76;76;55;78;78;64;85;85;
2;2;2;2;47;80;80;34;65;65;50;76;76;55;78;78;64;85;85;
2;2;2;2;47;80;80;34;65;65;50;76;76;55;78;78;64;85;85;
2;2;2;2;47;80;80;34;65;65;50;76;76;55;78;78;64;85;85;
2;2;2;2;47;80;80;34;65;65;50;76;76;55;78;78;64;85;85;
2;2;2;2;47;80;80;34;65;65;50;76;76;55;78;78;64;85;85;
2;2;2;2;47;80;80;34;65;65;50;76;76;55;78;78;64;85;85;
2;2;2;2;47;80;80;34;65;65;50;76;76;55;78;78;64;85;85;
2;2;2;2;47;80;80;34;65;65;50;76;76;55;78;78;64;85;85;
2;2;2;2;47;80;80;34;65;65;50;76;76;55;78;78;64;85;85;
2;2;2;2;47;80;80;34;65;65;50;76;76;55;78;78;64;85;85;
2;2;2;2;47;80;80;34;65;65;50;76;76;55;78;78;64;85;85;
2;2;2;2;47;80;80;34;65;65;50;76;76;55;78;78;64;85;85;
2;2;2;2;47;80;80;34;65;65;50;76;76;55;78;78;64;85;85;
2;2;2;2;47;80;80;34;65;65;50;76;76;55;78;78;64;85;85;
2;2;2;2;47;80;80;34;65;65;50;76;76;55;78;78;64;85;85;
2;2;2;2;47;80;80;34;65;65;50;76;76;55;78;78;64;85;85;
2;2;2;2;47;80;80;34;65;65;50;76;76;55;78;78;64;85;85;
2;2;2;2;47;80;80;34;65;65;50;76;76;55;78;78;64;85;85;
2;2;2;2;47;80;80;34;65;65;50;76;76;55;78;78;64;85;85;
2;2;2;2;47;80;80;34;65;65;50;76;76;55;78;78;64;85;85;
2;2;2;2;47;80;80;34;65;65;50;76;76;55;78;78;64;85;85;
2;2;2;2;47;80;80;34;65;65;50;76;76;55;78;78;64;85;85;
2;2;2;2;47;80;80;34;65;65;50;76;76;55;78;78;64;85;85;
2;2;2;2;47;80;80;34;65;65;50;76;76;55;78;78;64;85;85;
2;2;2;2;47;80;80;34;65;65;50;76;76;55;78;78;64;85;85;
2;2;2;2;47;80;80;34;65;65;50;76;76;55;78;78;64;85;85;
2;2;2;2;47;80;80;34;65;65;50;76;76;55;78;78;64;85;85;
2;2;2;2;47;80;80;34;65;65;50;76;76;55;78;78;64;85;85;
2;2;2;2;47;80;80;34;65;65;50;76;76;55;78;78;64;85;85;
2;2;2;2;47;80;80;34;65;65;50;76;76;55;78;78;64;85;85;
2;2;2;2;47;80;80;34;65;65;50;76;76;55;78;78;64;85;85;
2;2;2;2;47;80;80;34;65;65;50;76;76;55;78;78;64;85;85;
2;2;2;2;47;80;80;34;65;65;50;76;76;55;78;78;64;85;85;
2;2;2;2;47;80;80;34;65;65;50;76;76;55;78;78;64;85;85;
2;2;2;2;44;79;79;37;66;66;54;77;77;59;80;80;69;86;86;
2;2;2;2;44;79;79;37;66;66;54;77;77;59;80;80;69;86;86;
2;2;2;2;44;79;79;37;66;66;54;77;77;59;80;80;69;86;86;
2;2;2;2;43;79;79;38;67;67;55;78;78;61;81;81;70;86;86;
2;2;2;2;43;79;79;38;67;67;55;78;78;61;81;81;70;86;86;
2;2;2;2;43;79;79;38;67;67;55;78;78;61;81;81;70;86;86;
2;2;2;2;43;79;79;38;67;67;55;78;78;61;81;81;70;86;86;
2;2;2;2;43;79;79;38;67;67;55;78;78;61;81;81;70;86;86;
2;2;2;2;43;79;79;38;67;67;55;78;78;61;81;81;70;86;86;
2;2;2;2;43;79;79;38;67;67;55;78;78;61;81;81;70;86;86;
2;2;2;2;43;79;79;38;67;67;55;78;78;61;81;81;70;86;86;
2;2;2;2;43;79;79;38;67;67;55;78;78;61;81;81;70;86;86;
2;2;2;2;43;79;79;38;67;67;55;78;78;61;81;81;70;86;86;
2;2;2;2;43;79;79;38;67;67;55;78;78;61;81;81;70;86;86;
2;2;2;2;43;79;79;38;67;67;55;78;78;61;81;81;70;86;86;
2;2;2;2;43;79;79;38;67;67;55;78;78;61;81;81;70;86;86;
2;2;2;2;43;79;79;38;67;67;55;78;78;61;81;81;70;86;86;
2;2;2;2;43;79;79;38;67;67;55;78;78;61;81;81;70;86;86;
2;2;2;2;43;79;79;38;67;67;55;78;78;61;81;81;70;86;86;
2;2;2;2;43;79;79;38;67;67;55;78;78;61;81;81;70;86;86;
2;2;2;2;43;79;79;38;67;67;55;78;78;61;81;81;70;86;86;
2;2;2;2;43;79;79;38;67;67;55;78;78;61;81;81;70;86;86;
2;2;2;2;43;79;79;38;67;67;55;78;78;61;81;81;70;86;86;
2;2;2;2;43;79;79;38;67;67;55;78;78;61;81;81;70;86;86;
2;2;2;2;43;79;79;38;67;67;55;78;78;61;81;81;70;86;86;
2;2;2;2;43;79;79;38;67;67;55;78;78;61;81;81;70;86;86;
2;2;2;2;43;79;79;38;67;67;55;78;78;61;81;81;70;86;86;
2;2;2;2;43;79;79;38;67;67;55;78;78;61;81;81;70;86;86;
2;2;2;2;43;79;79;38;67;67;55;78;78;61;81;81;70;86;86;
2;2;2;2;43;79;79;38;67;67;55;78;78;61;81;81;70;86;86;
2;2;2;2;43;79;79;38;67;67;55;78;78;61;81;81;70;86;86;
2;2;2;2;43;79;79;38;67;67;55;78;78;61;81;81;70;86;86;
2;2;2;2;43;79;79;38;67;67;55;78;78;61;81;81;70;86;86;
2;2;2;2;43;79;79;38;67;67;55;78;78;61;81;81;70;86;86;
2;2;2;2;43;79;79;38;67;67;55;78;78;61;81;81;70;86;86;
2;2;2;2;43;79;79;38;67;67;55;78;78;61;81;81;70;86;86;
2;2;2;2;43;79;79;38;67;67;55;78;78;61;81;81;70;86;86;
2;2;2;2;43;79;79;38;67;67;55;78;78;61;81;81;70;86;86;
2;2;2;2;43;79;79;38;67;67;55;78;78;61;81;81;70;86;86;
2;2;2;2;43;79;79;38;67;67;55;78;78;61;81;81;70;86;86;
2;2;2;2;43;79;79;38;67;67;55;78;78;61;81;81;70;86;86;
2;2;2;2;43;79;79;38;67;67;55;78;78;61;81;81;70;86;86;
2;2;2;2;43;79;79;38;67;67;55;78;78;61;81;81;70;86;86;
2;2;2;2;43;79;79;38;67;67;55;78;78;61;81;81;70;86;86;
2;2;2;2;43;79;79;38;67;67;55;78;78;61;81;81;70;86;86;
2;2;2;2;43;79;79;38;67;67;55;78;78;61;81;81;70;86;86;
2;2;2;2;43;79;79;38;67;67;55;78;78;61;81;81;70;86;86;
2;2;2;2;43;79;79;38;67;67;55;78;78;61;81;81;70;86;86;
2;2;2;2;43;79;79;38;67;67;55;78;78;61;81;81;70;86;86;
2;2;2;2;43;79;79;38;67;67;55;78;78;61;81;81;70;86;86;
2;2;2;2;43;79;79;38;67;67;55;78;78;61;81;81;70;86;86;
2;2;2;2;43;79;79;38;67;67;55;78;78;61;81;81;70;86;86;
2;2;2;2;43;79;79;38;67;67;55;78;78;61;81;81;70;86;86;
2;2;2;2;43;79;79;38;67;67;55;78;78;61;81;81;70;86;86;
2;2;2;2;43;79;79;38;67;67;55;78;78;61;81;81;70;86;86;
2;2;2;2;43;79;79;38;67;67;55;78;78;61;81;81;70;86;86;
2;2;2;2;43;79;79;38;67;67;55;78;78;61;81;81;70;86;86;
2;2;2;2;43;79;79;38;67;67;55;78;78;61;81;81;70;86;86;
2;2;2;2;43;79;79;38;67;67;55;78;78;61;81;81;70;86;86;
2;2;2;2;43;79;79;38;67;67;55;78;78;61;81;81;70;86;86;
2;2;2;2;43;79;79;38;67;67;55;78;78;61;81;81;70;86;86;
2;2;2;2;43;79;79;38;67;67;55;78;78;61;81;81;70;86;86;
2;2;2;2;43;79;79;38;67;67;55;78;78;61;81;81;70;86;86;
2;2;2;2;43;79;79;38;67;67;55;78;78;61;81;81;70;86;86;
2;2;2;2;43;79;79;38;67;67;55;78;78;61;81;81;70;86;86;
2;2;2;2;43;79;79;38;67;67;55;78;78;61;81;81;70;86;86;
2;2;2;2;43;79;79;38;67;67;55;78;78;61;81;81;70;86;86;
2;2;2;2;43;79;79;38;67;67;55;78;78;61;81;81;70;86;86;
2;2;2;2;43;79;79;38;67;67;55;78;78;61;81;81;70;86;86;
2;2;2;2;43;79;79;38;67;67;55;78;78;61;81;81;70;86;86;
2;2;2;2;43;79;79;38;67;67;55;78;78;61;81;81;70;86;86;
2;2;2;2;43;79;79;38;67;67;55;78;78;61;81;81;70;86;86;
2;2;2;2;43;79;79;38;67;67;55;78;78;61;81;81;70;86;86;
2;2;2;2;43;79;79;38;67;67;55;78;78;61;81;81;70;86;86;
2;2;2;2;43;79;79;38;67;67;55;78;78;61;81;81;70;86;86;
2;2;2;2;43;79;79;38;67;67;55;78;78;61;81;81;70;86;86;
2;2;2;2;43;79;79;38;67;67;55;78;78;61;81;81;70;86;86;
2;2;2;2;43;79;79;38;67;67;55;78;78;61;81;81;70;86;86;
2;2;2;2;43;79;79;38;67;67;55;78;78;61;81;81;70;86;86;
2;2;2;2;43;79;79;38;67;67;55;78;78;61;81;81;70;86;86;
2;2;2;2;43;79;79;38;67;67;55;78;78;61;81;81;70;86;86;
2;2;2;2;43;79;79;38;67;67;55;78;78;61;81;81;70;86;86;
2;2;2;2;43;79;79;38;67;67;55;78;78;61;81;81;70;86;86;
2;2;2;2;43;79;79;38;67;67;55;78;78;61;81;81;70;86;86;
2;2;2;2;43;79;79;38;67;67;55;78;78;61;81;81;70;86;86;
2;2;2;2;43;79;79;38;67;67;55;78;78;61;81;81;70;86;86;
2;2;2;2;43;79;79;38;67;67;55;78;78;61;81;81;70;86;86;
2;2;2;2;43;79;79;38;67;67;55;78;78;61;81;81;70;86;86;
2;2;2;2;43;79;79;38;67;67;55;78;78;61;81;81;70;86;86;
2;2;2;2;43;79;79;38;67;67;55;78;78;61;81;81;70;86;86;
2;2;2;2;43;79;79;38;67;67;55;78;78;61;81;81;70;86;86;
2;2;2;2;43;79;79;38;67;67;55;78;78;61;81;81;70;86;86;
2;2;2;2;43;79;79;38;67;67;55;78;78;61;81;81;70;86;86;
2;2;2;2;43;79;79;38;67;67;55;78;78;61;81;81;70;86;86;
2;2;2;2;43;79;79;38;67;67;55;78;78;61;81;81;70;86;86;
2;2;2;2;43;79;79;38;67;67;55;78;78;61;81;81;70;86;86;
2;2;2;2;43;79;79;38;67;67;55;78;78;61;81;81;70;86;86;
2;2;2;2;43;79;79;38;67;67;55;78;78;61;81;81;70;86;86;
2;2;2;1;43;79;79;38;67;67;55;78;78;61;81;81;70;86;86;
1;1;1;1;43;79;79;38;67;67;55;78;78;61;81;81;70;86;86;
1;1;1;1;43;79;79;38;67;67;55;78;78;61;81;81;70;86;86;
1;1;1;1;43;79;79;38;67;67;55;78;78;61;81;81;70;86;86;
1;0;0;0;43;79;79;38;67;67;55;78;78;61;81;81;70;86;86;
0;0;0;0;43;79;79;38;67;67;55;78;78;61;81;81;70;86;86;
0;0;0;0;43;79;79;38;67;67;55;78;78;61;81;81;70;86;86;
0;0;0;0;43;79;79;38;67;67;55;78;78;61;81;81;70;86;86;
0;0;0;0;43;79;79;38;67;67;55;78;78;61;81;81;70;86;86;
0;0;0;0;43;79;79;38;67;67;55;78;78;61;81;81;70;86;86;
0;0;0;0;43;79;79;38;67;67;55;78;78;61;81;81;70;86;86;
0;0;0;0;43;79;79;38;67;67;55;78;78;61;81;81;70;86;86;
0;0;0;0;43;79;79;38;67;67;55;78;78;61;81;81;70;86;86;
0;0;0;0;43;79;79;38;67;67;55;78;78;61;81;81;70;86;86;
0;0;0;0;43;79;79;38;67;67;55;78;78;61;81;81;70;86;86;
0;0;0;0;43;79;79;38;67;67;55;78;78;61;81;81;70;86;86;
0;0;0;0;43;79;79;38;67;67;55;78;78;61;81;81;70;86;86;
0;0;0;0;43;79;79;38;67;67;55;78;78;61;81;81;70;86;86;
0;0;0;0;43;79;79;38;67;67;55;78;78;61;81;81;70;86;86;
0;0;0;0;43;79;79;38;67;67;55;78;78;61;81;81;70;86;86;
0;0;0;0;43;79;79;38;67;67;55;78;78;61;81;81;70;86;86;
0;0;0;0;43;79;79;38;67;67;55;78;78;61;81;81;70;86;86;
0;0;0;0;43;79;79;38;67;67;55;78;78;61;81;81;70;86;86;
0;0;0;0;43;79;79;38;67;67;55;78;78;61;81;81;70;86;86;
0;0;0;0;43;79;79;38;67;67;55;78;78;61;81;81;70;86;86;
0;0;0;0;43;79;79;38;67;67;55;78;78;61;81;81;70;86;86;
0;0;0;0;43;79;79;38;67;67;55;78;78;61;81;81;70;86;86;
0;0;0;0;43;79;79;38;67;67;55;78;78;61;81;81;70;86;86;
0;0;0;0;43;79;79;38;67;67;55;78;78;61;81;81;70;86;86;
0;0;0;0;43;79;79;38;67;67;55;78;78;61;81;81;70;86;86;
0;0;0;0;43;79;79;38;67;67;55;78;78;61;81;81;70;86;86;
0;0;0;0;43;79;79;38;67;67;55;78;78;61;81;81;70;86;86;
0;0;0;0;43;79;79;38;67;67;55;78;78;61;81;81;70;86;86;
0;0;0;0;43;79;79;38;67;67;55;78;78;61;81;81;70;86;86;
0;0;0;0;43;79;79;38;67;67;55;78;78;61;81;81;70;86;86;
0;0;0;0;43;79;79;38;67;67;55;78;78;61;81;81;70;86;86;
0;0;0;0;43;79;79;38;67;67;55;78;78;61;81;81;70;86;86;
0;0;0;0;43;79;79;38;67;67;55;78;78;61;81;81;70;86;86;
0;0;0;0;43;79;79;38;67;67;55;78;78;61;81;81;70;86;86;
0;0;0;0;43;79;79;38;67;67;55;78;78;61;81;81;70;86;86;
0;0;0;0;43;79;79;38;67;67;55;78;78;61;81;81;70;86;86;
0;0;0;0;43;79;79;38;67;67;55;78;78;61;81;81;70;86;86;
0;0;0;0;43;79;79;38;67;67;55;78;78;61;81;81;70;86;86;
0;0;0;0;41;78;78;40;68;68;57;78;78;63;81;81;71;85;85;
0;0;0;0;41;78;78;40;68;68;57;78;78;63;81;81;71;85;85;
0;0;0;0;41;78;78;40;68;68;57;78;78;63;81;81;71;85;85;
0;0;0;0;41;78;78;40;68;68;57;78;78;63;81;81;71;85;85;
0;0;0;0;41;78;78;40;68;68;57;78;78;63;81;81;71;85;85;
0;0;0;0;41;78;78;40;68;68;57;78;78;63;81;81;71;85;85;
0;0;0;0;41;78;78;40;68;68;57;78;78;63;81;81;71;85;85;
0;0;0;0;41;78;78;40;68;68;57;78;78;63;81;81;71;85;85;
0;0;0;0;41;78;78;40;68;68;57;78;78;63;81;81;71;85;85;
0;0;0;0;41;78;78;41;69;69;59;78;78;65;82;82;72;85;85;
0;0;0;0;41;78;78;41;69;69;59;78;78;65;82;82;72;85;85;
0;0;0;0;41;78;78;41;69;69;59;78;78;65;82;82;72;85;85;
0;0;0;0;41;78;78;41;69;69;59;78;78;65;82;82;72;85;85;
0;0;0;0;41;78;78;41;69;69;59;78;78;65;82;82;72;85;85;
0;0;0;0;41;78;78;41;69;69;59;78;78;65;82;82;72;85;85;
0;0;0;0;41;78;78;41;69;69;59;78;78;65;82;82;72;85;85;
0;0;0;0;41;78;78;41;69;69;59;78;78;65;82;82;72;85;85;
0;0;0;0;41;78;78;41;69;69;59;78;78;65;82;82;72;85;85;
0;0;0;0;41;78;78;41;69;69;59;78;78;65;82;82;72;85;85;
0;0;0;0;41;78;78;41;69;69;59;78;78;65;82;82;72;85;85;
0;0;0;0;41;78;78;41;69;69;59;78;78;65;82;82;72;85;85;
0;0;0;0;41;78;78;41;69;69;59;78;78;65;82;82;72;85;85;
0;0;0;0;41;78;78;41;69;69;59;78;78;65;82;82;72;85;85;
0;0;0;0;41;78;78;41;69;69;59;78;78;65;82;82;72;85;85;
0;0;0;0;41;78;78;41;69;69;59;78;78;65;82;82;72;85;85;
0;0;0;0;41;78;78;41;69;69;59;78;78;65;82;82;72;85;85;
0;0;0;0;41;78;78;41;69;69;59;78;78;65;82;82;72;85;85;
0;0;0;0;41;78;78;41;69;69;59;78;78;65;82;82;72;85;85;
0;0;0;0;41;78;78;41;69;69;59;78;78;65;82;82;72;85;85;
0;0;0;0;41;78;78;41;69;69;59;78;78;65;82;82;72;85;85;
0;0;0;0;41;78;78;41;69;69;59;78;78;65;82;82;72;85;85;
0;0;0;0;41;78;78;41;69;69;59;78;78;65;82;82;72;85;85;
0;0;0;0;41;78;78;41;69;69;59;78;78;65;82;82;72;85;85;
0;0;0;0;41;78;78;41;69;69;59;78;78;65;82;82;72;85;85;
0;0;0;0;41;78;78;41;69;69;59;78;78;65;82;82;72;85;85;
0;0;0;0;41;78;78;41;69;69;59;78;78;65;82;82;72;85;85;
0;0;0;0;41;78;78;41;69;69;59;78;78;65;82;82;72;85;85;
0;0;0;0;41;78;78;41;69;69;59;78;78;65;82;82;72;85;85;
0;0;0;0;41;78;78;41;69;69;59;78;78;65;82;82;72;85;85;
0;0;0;0;41;78;78;41;69;69;59;78;78;65;82;82;72;85;85;
0;0;0;0;41;78;78;41;69;69;59;78;78;65;82;82;72;85;85;
0;0;0;0;41;78;78;41;69;69;59;78;78;65;82;82;72;85;85;
0;0;0;0;41;78;78;41;69;69;59;78;78;65;82;82;72;85;85;
0;0;0;0;41;78;78;41;69;69;59;78;78;65;82;82;72;85;85;
0;0;0;0;41;78;78;41;69;69;59;78;78;65;82;82;72;85;85;
0;0;0;0;41;78;78;41;69;69;59;78;78;65;82;82;72;85;85;
0;0;0;0;41;78;78;41;69;69;59;78;78;65;82;82;72;85;85;
0;0;0;0;41;78;78;41;69;69;59;78;78;65;82;82;72;85;85;
0;0;0;0;42;78;78;45;71;71;62;79;79;67;82;82;74;85;85;
0;0;0;0;42;78;78;45;71;71;62;79;79;67;82;82;74;85;85;
0;0;0;0;42;78;78;45;71;71;62;79;79;67;82;82;74;85;85;
0;0;0;0;42;78;78;45;71;71;62;79;79;67;82;82;74;85;85;
0;0;0;0;42;78;78;45;71;71;62;79;79;67;82;82;74;85;85;
0;0;0;0;42;78;78;45;71;71;62;79;79;67;82;82;74;85;85;
0;0;0;0;42;78;78;45;71;71;62;79;79;67;82;82;74;85;85;
0;0;0;0;42;78;78;45;71;71;62;79;79;67;82;82;74;85;85;
0;0;0;0;42;78;78;45;71;71;62;79;79;67;82;82;74;85;85;
0;0;0;0;42;78;78;45;71;71;62;79;79;67;82;82;74;85;85;
0;0;0;0;42;78;78;45;71;71;62;79;79;67;82;82;74;85;85;
0;0;0;0;42;78;78;45;71;71;62;79;79;67;82;82;74;85;85;
0;0;0;0;42;78;78;45;71;71;62;79;79;67;82;82;74;85;85;
0;0;0;0;42;78;78;45;71;71;62;79;79;67;82;82;74;85;85;
0;0;0;0;42;78;78;45;71;71;62;79;79;67;82;82;74;85;85;
0;0;0;0;42;78;78;45;71;71;62;79;79;67;82;82;74;85;85;
0;0;0;0;42;78;78;45;71;71;62;79;79;67;82;82;74;85;85;
0;0;0;0;42;78;78;45;71;71;62;79;79;67;82;82;74;85;85;
0;0;0;0;42;78;78;45;71;71;62;79;79;67;82;82;74;85;85;
0;0;0;0;42;78;78;45;71;71;62;79;79;67;82;82;74;85;85;
0;0;0;0;42;78;78;45;71;71;62;79;79;67;82;82;74;85;85;
0;0;0;0;42;78;78;45;71;71;62;79;79;67;82;82;74;85;85;
0;0;0;0;42;78;78;45;71;71;62;79;79;67;82;82;74;85;85;
0;0;0;0;42;78;78;45;71;71;62;79;79;67;82;82;74;85;85;
0;0;0;0;42;78;78;45;71;71;62;79;79;67;82;82;74;85;85;
0;0;0;0;42;78;78;45;71;71;62;79;79;67;82;82;74;85;85;
0;0;0;0;42;78;78;45;71;71;62;79;79;67;82;82;74;85;85;
0;0;0;0;42;78;78;45;71;71;62;79;79;67;82;82;74;85;85;
0;0;0;0;42;78;78;45;71;71;62;79;79;67;82;82;74;85;85;
0;0;0;0;42;78;78;45;71;71;62;79;79;67;82;82;74;85;85;
0;0;0;0;42;78;78;45;71;71;62;79;79;67;82;82;74;85;85;
0;0;0;0;42;78;78;45;71;71;62;79;79;67;82;82;74;85;85;
0;0;0;0;42;78;78;45;71;71;62;79;79;67;82;82;74;85;85;
0;0;0;0;42;78;78;45;71;71;62;79;79;67;82;82;74;85;85;
0;0;0;0;42;78;78;45;71;71;62;79;79;67;82;82;74;85;85;
0;0;0;0;42;78;78;45;71;71;62;79;79;67;82;82;74;85;85;
0;0;0;0;42;78;78;45;71;71;62;79;79;67;82;82;74;85;85;
0;0;0;0;42;78;78;45;71;71;62;79;79;67;82;82;74;85;85;
0;0;0;0;42;78;78;45;71;71;62;79;79;67;82;82;74;85;85;
0;0;0;0;42;78;78;45;71;71;62;79;79;67;82;82;74;85;85;
0;0;0;0;42;78;78;45;71;71;62;79;79;67;82;82;74;85;85;
0;0;0;0;42;78;78;45;71;71;62;79;79;67;82;82;74;85;85;
0;0;0;0;42;78;78;45;71;71;62;79;79;67;82;82;74;85;85;
0;0;0;0;42;78;78;45;71;71;62;79;79;67;82;82;74;85;85;
0;0;0;0;42;78;78;45;71;71;62;79;79;67;82;82;74;85;85;
0;0;0;0;42;78;78;45;71;71;62;79;79;67;82;82;74;85;85;
0;0;0;0;42;78;78;45;71;71;62;79;79;67;82;82;74;85;85;
0;0;0;0;42;78;78;45;71;71;62;79;79;67;82;82;74;85;85;
0;0;0;0;42;78;78;45;71;71;62;79;79;67;82;82;74;85;85;
0;0;0;0;42;78;78;45;71;71;62;79;79;67;82;82;74;85;85;
0;0;0;0;42;78;78;45;71;71;62;79;79;67;82;82;74;85;85;
0;0;0;0;42;78;78;45;71;71;62;79;79;67;82;82;74;85;85;
0;0;0;0;42;78;78;45;71;71;62;79;79;67;82;82;74;85;85;
0;0;0;0;42;78;78;45;71;71;62;79;79;67;82;82;74;85;85;
0;0;0;0;42;78;78;45;71;71;62;79;79;67;82;82;74;85;85;
0;0;0;0;42;78;78;45;71;71;62;79;79;67;82;82;74;85;85;
0;0;0;0;42;78;78;45;71;71;62;79;79;67;82;82;74;85;85;
0;0;0;0;42;78;78;45;71;71;62;79;79;67;82;82;74;85;85;
0;0;0;0;42;78;78;45;71;71;62;79;79;67;82;82;74;85;85;
0;0;0;0;42;78;78;45;71;71;62;79;79;67;82;82;74;85;85;
0;0;0;0;42;78;78;45;71;71;62;79;79;67;82;82;74;85;85;
0;0;0;0;42;78;78;45;71;71;62;79;79;67;82;82;74;85;85;
0;0;0;0;42;78;78;45;71;71;62;79;79;67;82;82;74;85;85;
0;0;0;0;42;78;78;45;71;71;62;79;79;67;82;82;74;85;85;
0;0;0;0;42;78;78;45;71;71;62;79;79;67;82;82;74;85;85;
0;0;0;0;42;78;78;45;71;71;62;79;79;67;82;82;74;85;85;
0;0;0;0;42;78;78;45;71;71;62;79;79;67;82;82;74;85;85;
0;0;0;0;42;78;78;45;71;71;62;79;79;67;82;82;74;85;85;
0;0;0;0;42;78;78;45;71;71;62;79;79;67;82;82;74;85;85;
0;0;0;0;42;78;78;45;71;71;62;79;79;67;82;82;74;85;85;
0;0;0;0;42;78;78;45;71;71;62;79;79;67;82;82;74;85;85;
0;0;0;0;42;78;78;45;71;71;62;79;79;67;82;82;74;85;85;
0;0;0;0;42;78;78;45;71;71;62;79;79;67;82;82;74;85;85;
0;0;0;0;42;78;78;45;71;71;62;79;79;67;82;82;74;85;85;
0;0;0;0;42;78;78;45;71;71;62;79;79;67;82;82;74;85;85;
0;0;0;0;42;78;78;45;71;71;62;79;79;67;82;82;74;85;85;
0;0;0;0;42;78;78;45;71;71;62;79;79;67;82;82;74;85;85;
0;0;0;0;42;78;78;45;71;71;62;79;79;67;82;82;74;85;85;
0;0;0;0;42;78;78;45;71;71;62;79;79;67;82;82;74;85;85;
0;0;0;0;42;78;78;45;71;71;62;79;79;67;82;82;74;85;85;
0;0;0;0;42;78;78;45;71;71;62;79;79;67;82;82;74;85;85;
0;0;0;0;42;78;78;45;71;71;62;79;79;67;82;82;74;85;85;
0;0;0;0;42;78;78;45;71;71;62;79;79;67;82;82;74;85;85;
0;0;0;0;42;78;78;45;71;71;62;79;79;67;82;82;74;85;85;
0;0;0;0;42;78;78;45;71;71;62;79;79;67;82;82;74;85;85;
0;0;0;0;42;78;78;45;71;71;62;79;79;67;82;82;74;85;85;
0;0;0;0;42;78;78;45;71;71;62;79;79;67;82;82;74;85;85;
0;0;0;0;42;78;78;45;71;71;62;79;79;67;82;82;74;85;85;
0;0;0;0;42;78;78;45;71;71;62;79;79;67;82;82;74;85;85;
0;0;0;0;42;78;78;45;71;71;62;79;79;67;82;82;74;85;85;
0;0;0;0;42;78;78;45;71;71;62;79;79;67;82;82;74;85;85;
0;0;0;0;42;78;78;45;71;71;62;79;79;67;82;82;74;85;85;
0;0;0;0;42;78;78;45;71;71;62;79;79;67;82;82;74;85;85;
0;0;0;0;42;78;78;45;71;71;62;79;79;67;82;82;74;85;85;
0;0;0;0;42;78;78;45;71;71;62;79;79;67;82;82;74;85;85;
0;0;0;0;42;78;78;45;71;71;62;79;79;67;82;82;74;85;85;
0;0;0;0;42;78;78;45;71;71;62;79;79;67;82;82;74;85;85;
0;0;0;0;42;78;78;45;71;71;62;79;79;67;82;82;74;85;85;
0;0;0;0;42;78;78;45;71;71;62;79;79;67;82;82;74;85;85;
0;0;0;0;42;78;78;45;71;71;62;79;79;67;82;82;74;85;85;
0;0;0;0;42;78;78;45;71;71;62;79;79;67;82;82;74;85;85;
0;0;0;0;42;78;78;45;71;71;62;79;79;67;82;82;74;85;85;
0;0;0;0;42;78;78;45;71;71;62;79;79;67;82;82;74;85;85;
0;0;0;0;42;78;78;45;71;71;62;79;79;67;82;82;74;85;85;
0;0;0;0;42;78;78;45;71;71;62;79;79;67;82;82;74;85;85;
0;0;0;0;42;78;78;45;71;71;62;79;79;67;82;82;74;85;85;
0;0;0;0;42;78;78;45;71;71;62;79;79;67;82;82;74;85;85;
0;0;0;0;42;78;78;45;71;71;62;79;79;67;82;82;74;85;85;
0;0;0;0;42;78;78;45;71;71;62;79;79;67;82;82;74;85;85;
0;0;0;0;42;78;78;45;71;71;62;79;79;67;82;82;74;85;85;
0;0;0;0;42;78;78;45;71;71;62;79;79;67;82;82;74;85;85;
0;0;0;0;42;78;78;45;71;71;62;79;79;67;82;82;74;85;85;
0;0;0;0;42;78;78;45;71;71;62;79;79;67;82;82;74;85;85;
0;0;0;0;42;78;78;45;71;71;62;79;79;67;82;82;74;85;85;
0;0;0;0;42;78;78;45;71;71;62;79;79;67;82;82;74;85;85;
0;0;0;0;42;78;78;45;71;71;62;79;79;67;82;82;74;85;85;
0;0;0;0;42;78;78;45;71;71;62;79;79;67;82;82;74;85;85;
0;0;0;0;42;78;78;45;71;71;62;79;79;67;82;82;74;85;85;
0;0;0;0;42;78;78;45;71;71;62;79;79;67;82;82;74;85;85;
0;0;0;0;42;78;78;45;71;71;62;79;79;67;82;82;74;85;85;
0;0;0;0;42;78;78;45;71;71;62;79;79;67;82;82;74;85;85;
0;0;0;0;42;78;78;45;71;71;62;79;79;67;82;82;74;85;85;
0;0;0;0;42;78;78;45;71;71;62;79;79;67;82;82;74;85;85;
0;0;0;0;42;78;78;45;71;71;62;79;79;67;82;82;74;85;85;
0;0;0;0;42;78;78;45;71;71;62;79;79;67;82;82;74;85;85;
0;0;0;0;42;78;78;45;71;71;62;79;79;67;82;82;74;85;85;
0;0;0;0;42;78;78;45;71;71;62;79;79;67;82;82;74;85;85;
0;0;0;0;42;78;78;45;71;71;62;79;79;67;82;82;74;85;85;
0;0;0;0;42;78;78;45;71;71;62;79;79;67;82;82;74;85;85;
0;0;0;0;42;78;78;45;71;71;62;79;79;67;82;82;74;85;85;
0;0;0;0;42;78;78;45;71;71;62;79;79;67;82;82;74;85;85;
0;0;0;0;42;78;78;45;71;71;62;79;79;67;82;82;74;85;85;
0;0;0;0;42;78;78;45;71;71;62;79;79;67;82;82;74;85;85;
0;0;0;0;42;78;78;45;71;71;62;79;79;67;82;82;74;85;85;
0;0;0;0;42;78;78;45;71;71;62;79;79;67;82;82;74;85;85;
0;0;0;0;42;78;78;45;71;71;62;79;79;67;82;82;74;85;85;
0;0;0;0;42;78;78;45;71;71;62;79;79;67;82;82;74;85;85;
0;0;0;0;42;78;78;45;71;71;62;79;79;67;82;82;74;85;85;
0;0;0;0;42;78;78;45;71;71;62;79;79;67;82;82;74;85;85;
0;0;0;0;42;78;78;45;71;71;62;79;79;67;82;82;74;85;85;
0;0;0;0;42;78;78;45;71;71;62;79;79;67;82;82;74;85;85;
0;0;0;0;42;78;78;45;71;71;62;79;79;67;82;82;74;85;85;
0;0;0;0;42;78;78;45;71;71;62;79;79;67;82;82;74;85;85;
0;0;0;0;42;78;78;45;71;71;62;79;79;67;82;82;74;85;85;
0;0;0;0;42;78;78;45;71;71;62;79;79;67;82;82;74;85;85;
0;0;0;0;42;78;78;45;71;71;62;79;79;67;82;82;74;85;85;
0;0;0;0;42;78;78;45;71;71;62;79;79;67;82;82;74;85;85;
0;0;0;0;42;78;78;45;71;71;62;79;79;67;82;82;74;85;85;
0;0;0;0;42;78;78;45;71;71;62;79;79;67;82;82;74;85;85;
0;0;0;0;42;78;78;45;71;71;62;79;79;67;82;82;74;85;85;
0;0;0;0;42;78;78;45;71;71;62;79;79;67;82;82;74;85;85;
0;0;0;0;42;78;78;45;71;71;62;79;79;67;82;82;74;85;85;
0;0;0;0;42;78;78;45;71;71;62;79;79;67;82;82;74;85;85;
0;0;0;0;42;78;78;45;71;71;62;79;79;67;82;82;74;85;85;
0;0;0;0;42;78;78;45;71;71;62;79;79;67;82;82;74;85;85;
0;0;0;0;47;82;82;53;75;75;67;81;81;70;83;83;78;85;85;
0;0;0;0;47;82;82;53;75;75;67;81;81;70;83;83;78;85;85;
0;0;0;0;47;82;82;53;75;75;67;81;81;70;83;83;78;85;85;
0;0;0;0;47;82;82;53;75;75;67;81;81;70;83;83;78;85;85;
0;0;0;0;47;82;82;53;75;75;67;81;81;70;83;83;78;85;85;
0;0;0;0;47;82;82;53;75;75;67;81;81;70;83;83;78;85;85;
0;0;0;0;47;82;82;53;75;75;67;81;81;70;83;83;78;85;85;
0;0;0;0;47;82;82;53;75;75;67;81;81;70;83;83;78;85;85;
0;0;0;0;47;82;82;53;75;75;67;81;81;70;83;83;78;85;85;
0;0;0;0;47;82;82;53;75;75;67;81;81;70;83;83;78;85;85;
0;0;0;0;47;82;82;53;75;75;67;81;81;70;83;83;78;85;85;
0;0;0;0;47;82;82;53;75;75;67;81;81;70;83;83;78;85;85;
0;0;0;0;47;83;83;56;76;76;68;81;81;70;82;82;79;85;85;
0;0;0;0;47;83;83;56;76;76;68;81;81;70;82;82;79;85;85;
0;0;0;0;48;83;83;58;77;77;68;81;81;70;83;83;79;85;85;
0;0;0;0;48;83;83;58;77;77;68;81;81;70;83;83;79;85;85;
0;0;0;0;48;83;83;58;77;77;68;81;81;70;83;83;79;85;85;
0;0;0;0;48;83;83;58;77;77;68;81;81;70;83;83;79;85;85;
0;0;0;0;48;83;83;58;77;77;68;81;81;70;83;83;79;85;85;
0;0;0;0;48;83;83;58;77;77;68;81;81;70;83;83;79;85;85;
0;0;0;0;48;83;83;58;77;77;68;81;81;70;83;83;79;85;85;
0;0;0;0;48;83;83;58;77;77;68;81;81;70;83;83;79;85;85;
0;0;0;0;48;83;83;58;77;77;68;81;81;70;83;83;79;85;85;
0;0;0;0;48;83;83;58;77;77;68;81;81;70;83;83;79;85;85;
0;0;0;0;48;83;83;58;77;77;68;81;81;70;83;83;79;85;85;
0;0;0;0;48;83;83;58;77;77;68;81;81;70;83;83;79;85;85;
0;0;0;0;48;83;83;58;77;77;68;81;81;70;83;83;79;85;85;
0;0;0;0;48;83;83;58;77;77;68;81;81;70;83;83;79;85;85;
0;0;0;0;48;83;83;58;77;77;68;81;81;70;83;83;79;85;85;
0;0;0;0;48;83;83;58;77;77;68;81;81;70;83;83;79;85;85;
0;0;0;0;48;83;83;58;77;77;68;81;81;70;83;83;79;85;85;
0;0;0;0;48;83;83;59;78;78;69;81;81;72;83;83;79;85;85;
0;0;0;0;48;83;83;59;78;78;69;81;81;72;83;83;79;85;85;
0;0;0;0;48;83;83;59;78;78;69;81;81;72;83;83;79;85;85;
0;0;0;0;48;83;83;59;78;78;69;81;81;72;83;83;79;85;85;
0;0;0;0;48;83;83;59;78;78;69;81;81;72;83;83;79;85;85;
0;0;0;0;48;83;83;59;78;78;69;81;81;72;83;83;79;85;85;
0;0;0;0;48;83;83;59;78;78;69;81;81;72;83;83;79;85;85;
0;0;0;0;48;83;83;59;78;78;69;81;81;72;83;83;79;85;85;
0;0;0;0;48;83;83;59;78;78;69;81;81;72;83;83;79;85;85;
0;0;0;0;48;83;83;59;78;78;69;81;81;72;83;83;79;85;85;
0;0;0;0;48;83;83;59;78;78;69;81;81;72;83;83;79;85;85;
0;0;0;0;48;83;83;59;78;78;69;81;81;72;83;83;79;85;85;
0;0;0;0;48;83;83;59;78;78;69;81;81;72;83;83;79;85;85;
0;0;0;0;48;83;83;59;78;78;69;81;81;72;83;83;79;85;85;
0;0;0;0;48;83;83;59;78;78;69;81;81;72;83;83;79;85;85;
0;0;0;0;48;83;83;59;78;78;69;81;81;72;83;83;79;85;85;
0;0;0;0;48;83;83;59;78;78;69;81;81;72;83;83;79;85;85;
0;0;0;0;48;83;83;59;78;78;69;81;81;72;83;83;79;85;85;
0;0;0;0;48;83;83;59;78;78;69;81;81;72;83;83;79;85;85;
0;0;0;0;48;83;83;59;78;78;69;81;81;72;83;83;79;85;85;
0;0;0;0;48;83;83;59;78;78;69;81;81;72;83;83;79;85;85;
0;0;0;0;48;83;83;59;78;78;69;81;81;72;83;83;79;85;85;
0;0;0;0;48;83;83;59;78;78;69;81;81;72;83;83;79;85;85;
0;0;0;0;48;83;83;59;78;78;69;81;81;72;83;83;79;85;85;
0;0;0;0;48;83;83;59;78;78;69;81;81;72;83;83;79;85;85;
0;0;0;0;48;83;83;59;78;78;69;81;81;72;83;83;79;85;85;
0;0;0;0;48;83;83;59;78;78;69;81;81;72;83;83;79;85;85;
0;0;0;0;48;83;83;59;78;78;69;81;81;72;83;83;79;85;85;
0;0;0;0;48;83;83;59;78;78;69;81;81;72;83;83;79;85;85;
0;0;0;0;48;83;83;59;78;78;69;81;81;72;83;83;79;85;85;
0;0;0;0;48;83;83;59;78;78;69;81;81;72;83;83;79;85;85;
0;0;0;0;48;83;83;59;78;78;69;81;81;72;83;83;79;85;85;
0;0;0;0;48;83;83;59;78;78;69;81;81;72;83;83;79;85;85;
0;0;0;0;48;83;83;59;78;78;69;81;81;72;83;83;79;85;85;
0;0;0;0;48;83;83;59;78;78;69;81;81;72;83;83;79;85;85;
0;0;0;0;48;83;83;59;78;78;69;81;81;72;83;83;79;85;85;
0;0;0;0;48;83;83;59;78;78;69;81;81;72;83;83;79;85;85;
0;0;0;0;48;83;83;59;78;78;69;81;81;72;83;83;79;85;85;
0;0;0;0;48;83;83;59;78;78;69;81;81;72;83;83;79;85;85;
0;0;0;0;48;83;83;59;78;78;69;81;81;72;83;83;79;85;85;
0;0;0;0;48;83;83;59;78;78;69;81;81;72;83;83;79;85;85;
0;0;0;0;48;83;83;59;78;78;69;81;81;72;83;83;79;85;85;
0;0;0;0;48;83;83;59;78;78;69;81;81;72;83;83;79;85;85;
0;0;0;0;48;83;83;59;78;78;69;81;81;72;83;83;79;85;85;
0;0;0;0;48;83;83;59;78;78;69;81;81;72;83;83;79;85;85;
0;0;0;0;48;83;83;59;78;78;69;81;81;72;83;83;79;85;85;
0;0;0;0;48;83;83;59;78;78;69;81;81;72;83;83;79;85;85;
0;0;0;0;48;83;83;59;78;78;69;81;81;72;83;83;79;85;85;
0;0;0;0;48;83;83;59;78;78;69;81;81;72;83;83;79;85;85;
0;0;0;0;48;83;83;59;78;78;69;81;81;72;83;83;79;85;85;
0;0;0;0;48;83;83;59;78;78;69;81;81;72;83;83;79;85;85;
0;0;0;0;48;83;83;59;78;78;69;81;81;72;83;83;79;85;85;
0;0;0;0;48;83;83;59;78;78;69;81;81;72;83;83;79;85;85;
0;0;0;0;48;83;83;59;78;78;69;81;81;72;83;83;79;85;85;
0;0;0;0;48;83;83;59;78;78;69;81;81;72;83;83;79;85;85;
0;0;0;0;48;83;83;59;78;78;69;81;81;72;83;83;79;85;85;
0;0;0;0;48;83;83;59;78;78;69;81;81;72;83;83;79;85;85;
0;0;0;0;48;83;83;59;78;78;69;81;81;72;83;83;79;85;85;
0;0;0;0;48;83;83;59;78;78;69;81;81;72;83;83;79;85;85;
0;0;0;0;48;83;83;59;78;78;69;81;81;72;83;83;79;85;85;
0;0;0;0;48;83;83;59;78;78;69;81;81;72;83;83;79;85;85;
0;0;0;0;48;83;83;59;78;78;69;81;81;72;83;83;79;85;85;
0;0;0;0;48;83;83;59;78;78;69;81;81;72;83;83;79;85;85;
0;0;0;0;48;83;83;59;78;78;69;81;81;72;83;83;79;85;85;
0;0;0;0;48;83;83;59;78;78;69;81;81;72;83;83;79;85;85;
0;0;0;0;48;83;83;59;78;78;69;81;81;72;83;83;79;85;85;
0;0;0;0;48;83;83;59;78;78;69;81;81;72;83;83;79;85;85;
0;0;0;0;48;83;83;59;78;78;69;81;81;72;83;83;79;85;85;
0;0;0;0;48;83;83;59;78;78;69;81;81;72;83;83;79;85;85;
0;0;0;0;48;83;83;59;78;78;69;81;81;72;83;83;79;85;85;
0;0;0;0;48;83;83;59;78;78;69;81;81;72;83;83;79;85;85;
0;0;0;0;48;83;83;59;78;78;69;81;81;72;83;83;79;85;85;
0;0;0;0;48;83;83;59;78;78;69;81;81;72;83;83;79;85;85;
0;0;0;0;48;83;83;59;78;78;69;81;81;72;83;83;79;85;85;
0;0;0;0;48;83;83;59;78;78;69;81;81;72;83;83;79;85;85;
0;0;0;0;48;83;83;59;78;78;69;81;81;72;83;83;79;85;85;
0;0;0;0;48;83;83;59;78;78;69;81;81;72;83;83;79;85;85;
0;0;0;0;48;83;83;59;78;78;69;81;81;72;83;83;79;85;85;
0;0;0;0;48;83;83;59;78;78;69;81;81;72;83;83;79;85;85;
0;0;0;0;48;83;83;59;78;78;69;81;81;72;83;83;79;85;85;
0;0;0;0;48;83;83;59;78;78;69;81;81;72;83;83;79;85;85;
0;0;0;0;48;83;83;59;78;78;69;81;81;72;83;83;79;85;85;
0;0;0;0;48;83;83;59;78;78;69;81;81;72;83;83;79;85;85;
0;0;0;0;48;83;83;59;78;78;69;81;81;72;83;83;79;85;85;
0;0;0;0;48;83;83;59;78;78;69;81;81;72;83;83;79;85;85;
0;0;0;0;48;83;83;59;78;78;69;81;81;72;83;83;79;85;85;
0;0;0;0;48;83;83;59;78;78;69;81;81;72;83;83;79;85;85;
0;0;0;0;48;83;83;59;78;78;69;81;81;72;83;83;79;85;85;
0;0;0;0;48;83;83;59;78;78;69;81;81;72;83;83;79;85;85;
0;0;0;0;48;83;83;59;78;78;69;81;81;72;83;83;79;85;85;
0;0;0;0;48;83;83;59;78;78;69;81;81;72;83;83;79;85;85;
0;0;0;0;48;83;83;59;78;78;69;81;81;72;83;83;79;85;85;
0;0;0;0;48;83;83;59;78;78;69;81;81;72;83;83;79;85;85;
0;0;0;0;48;83;83;59;78;78;69;81;81;72;83;83;79;85;85;
0;0;0;0;48;83;83;59;78;78;69;81;81;72;83;83;79;85;85;
0;0;0;0;48;83;83;59;78;78;69;81;81;72;83;83;79;85;85;
0;0;0;0;48;83;83;59;78;78;69;81;81;72;83;83;79;85;85;
0;0;0;0;48;83;83;59;78;78;69;81;81;72;83;83;79;85;85;
0;0;0;0;48;83;83;59;78;78;69;81;81;72;83;83;79;85;85;
0;0;0;0;48;83;83;59;78;78;69;81;81;72;83;83;79;85;85;
0;0;0;0;48;83;83;59;78;78;69;81;81;72;83;83;79;85;85;
0;0;0;0;48;83;83;59;78;78;69;81;81;72;83;83;79;85;85;
0;0;0;0;48;83;83;59;78;78;69;81;81;72;83;83;79;85;85;
0;0;0;0;48;83;83;59;78;78;69;81;81;72;83;83;79;85;85;
0;0;0;0;48;83;83;59;78;78;69;81;81;72;83;83;79;85;85;
0;0;0;0;48;83;83;59;78;78;69;81;81;72;83;83;79;85;85;
0;0;0;0;48;83;83;59;78;78;69;81;81;72;83;83;79;85;85;
0;0;0;0;48;83;83;59;78;78;69;81;81;72;83;83;79;85;85;
0;0;0;0;48;83;83;59;78;78;69;81;81;72;83;83;79;85;85;
0;0;0;0;48;83;83;59;78;78;69;81;81;72;83;83;79;85;85;
0;0;0;0;48;83;83;59;78;78;69;81;81;72;83;83;79;85;85;
0;0;0;0;48;83;83;59;78;78;69;81;81;72;83;83;79;85;85;
0;0;0;0;48;83;83;59;78;78;69;81;81;72;83;83;79;85;85;
0;0;0;0;48;83;83;59;78;78;69;81;81;72;83;83;79;85;85;
0;0;0;0;48;83;83;59;78;78;69;81;81;72;83;83;79;85;85;
0;0;0;0;48;83;83;59;78;78;69;81;81;72;83;83;79;85;85;
0;0;0;0;48;83;83;59;78;78;69;81;81;72;83;83;79;85;85;
0;0;0;0;48;83;83;59;78;78;69;81;81;72;83;83;79;85;85;
0;0;0;0;48;83;83;59;78;78;69;81;81;72;83;83;79;85;85;
0;0;0;0;50;84;84;64;80;80;72;82;82;73;83;83;81;84;84;
0;0;0;0;50;84;84;64;80;80;72;82;82;73;83;83;81;84;84;
0;0;0;0;50;84;84;64;80;80;72;82;82;73;83;83;81;84;84;
0;0;0;0;50;84;84;64;80;80;72;82;82;73;83;83;81;84;84;
0;0;0;0;50;84;84;64;80;80;72;82;82;73;83;83;81;84;84;
0;0;0;0;50;84;84;64;80;80;72;82;82;73;83;83;81;84;84;
0;0;0;0;51;84;84;65;80;80;72;82;82;74;83;83;81;84;84;
0;0;0;0;52;84;84;65;80;80;73;82;82;74;83;83;81;84;84;
0;0;0;0;52;84;84;65;80;80;73;82;82;74;83;83;81;84;84;
0;0;0;0;52;84;84;65;80;80;73;82;82;74;83;83;81;84;84;
0;0;0;0;52;84;84;65;80;80;73;82;82;74;83;83;81;84;84;
0;0;0;0;52;84;84;65;80;80;73;82;82;74;83;83;81;84;84;
0;0;0;0;52;84;84;65;80;80;73;82;82;74;83;83;81;84;84;
0;0;0;0;52;84;84;65;80;80;73;82;82;74;83;83;81;84;84;
0;0;0;0;52;84;84;65;80;80;73;82;82;74;83;83;81;84;84;
0;0;0;0;52;84;84;65;80;80;73;82;82;74;83;83;81;84;84;
0;0;0;0;52;84;84;65;80;80;73;82;82;74;83;83;81;84;84;
0;0;0;0;52;84;84;65;80;80;73;82;82;74;83;83;81;84;84;
0;0;0;0;52;84;84;65;80;80;73;82;82;74;83;83;81;84;84;
0;0;0;0;52;84;84;65;80;80;73;82;82;74;83;83;81;84;84;
0;0;0;0;52;84;84;65;80;80;73;82;82;74;83;83;81;84;84;
0;0;0;0;52;84;84;65;80;80;73;82;82;74;83;83;81;84;84;
0;0;0;0;52;84;84;65;80;80;73;82;82;74;83;83;81;84;84;
0;0;0;0;52;84;84;65;80;80;73;82;82;74;83;83;81;84;84;
0;0;0;0;52;84;84;65;80;80;73;82;82;74;83;83;81;84;84;
0;0;0;0;52;84;84;65;80;80;73;82;82;74;83;83;81;84;84;
0;0;0;0;52;84;84;65;80;80;73;82;82;74;83;83;81;84;84;
0;0;0;0;52;84;84;65;80;80;73;82;82;74;83;83;81;84;84;
0;0;0;0;52;84;84;65;80;80;73;82;82;74;83;83;81;84;84;
0;0;0;0;52;84;84;65;80;80;73;82;82;74;83;83;81;84;84;
0;0;0;0;52;84;84;65;80;80;73;82;82;74;83;83;81;84;84;
0;0;0;0;52;84;84;65;80;80;73;82;82;74;83;83;81;84;84;
0;0;0;0;52;84;84;65;80;80;73;82;82;74;83;83;81;84;84;
0;0;0;0;52;84;84;65;80;80;73;82;82;74;83;83;81;84;84;
0;0;0;0;52;84;84;65;80;80;73;82;82;74;83;83;81;84;84;
0;0;0;0;52;84;84;65;80;80;73;82;82;74;83;83;81;84;84;
0;0;0;0;52;84;84;65;80;80;73;82;82;74;83;83;81;84;84;
0;0;0;0;52;84;84;65;80;80;73;82;82;74;83;83;81;84;84;
0;0;0;0;52;84;84;65;80;80;73;82;82;74;83;83;81;84;84;
0;0;0;0;52;84;84;65;80;80;73;82;82;74;83;83;81;84;84;
0;0;0;0;52;84;84;65;80;80;73;82;82;74;83;83;81;84;84;
0;0;0;0;52;84;84;65;80;80;73;82;82;74;83;83;81;84;84;
0;0;0;0;52;84;84;65;80;80;73;82;82;74;83;83;81;84;84;
0;0;0;0;52;84;84;65;80;80;73;82;82;74;83;83;81;84;84;
0;0;0;0;52;84;84;65;80;80;73;82;82;74;83;83;81;84;84;
0;0;0;0;52;84;84;65;80;80;73;82;82;74;83;83;81;84;84;
0;0;0;0;52;84;84;65;80;80;73;82;82;74;83;83;81;84;84;
0;0;0;0;52;84;84;65;80;80;73;82;82;74;83;83;81;84;84;
0;0;0;0;52;84;84;65;80;80;73;82;82;74;83;83;81;84;84;
0;0;0;0;52;84;84;65;80;80;73;82;82;74;83;83;81;84;84;
0;0;0;0;52;84;84;65;80;80;73;82;82;74;83;83;81;84;84;
0;0;0;0;52;84;84;65;80;80;73;82;82;74;83;83;81;84;84;
0;0;0;0;52;84;84;65;80;80;73;82;82;74;83;83;81;84;84;
0;0;0;0;52;84;84;65;80;80;73;82;82;74;83;83;81;84;84;
0;0;0;0;52;84;84;65;80;80;73;82;82;74;83;83;81;84;84;
0;0;0;0;52;84;84;65;80;80;73;82;82;74;83;83;81;84;84;
0;0;0;0;52;84;84;65;80;80;73;82;82;74;83;83;81;84;84;
0;0;0;0;52;84;84;65;80;80;73;82;82;74;83;83;81;84;84;
0;0;0;0;52;84;84;65;80;80;73;82;82;74;83;83;81;84;84;
0;0;0;0;52;84;84;65;80;80;73;82;82;74;83;83;81;84;84;
0;0;0;0;52;84;84;65;80;80;73;82;82;74;83;83;81;84;84;
0;0;0;0;52;84;84;65;80;80;73;82;82;74;83;83;81;84;84;
0;0;0;0;52;84;84;65;80;80;73;82;82;74;83;83;81;84;84;
0;0;0;0;52;84;84;66;81;81;73;82;82;74;83;83;81;83;83;
0;0;0;0;52;84;84;66;81;81;73;82;82;74;83;83;81;83;83;
0;0;0;0;52;84;84;66;81;81;73;82;82;74;83;83;81;83;83;
0;0;0;0;52;84;84;66;81;81;73;82;82;74;83;83;81;83;83;
0;0;0;0;52;84;84;66;81;81;73;82;82;74;83;83;81;83;83;
0;0;0;0;52;84;84;66;81;81;73;82;82;74;83;83;81;83;83;
0;0;0;0;52;84;84;66;81;81;73;82;82;74;83;83;81;83;83;
0;0;0;0;52;84;84;66;81;81;73;82;82;74;83;83;81;83;83;
0;0;0;0;53;84;84;66;81;81;73;82;82;74;83;83;81;83;83;
0;0;0;0;53;84;84;66;81;81;73;82;82;74;83;83;81;83;83;
0;0;0;0;53;84;84;66;81;81;73;82;82;74;83;83;81;83;83;
0;0;0;0;53;84;84;66;81;81;73;82;82;74;83;83;81;83;83;
0;0;0;0;53;84;84;66;81;81;73;82;82;74;83;83;81;83;83;
0;0;0;0;53;84;84;66;81;81;73;82;82;74;83;83;81;83;83;
0;0;0;0;53;84;84;66;81;81;73;82;82;74;83;83;81;83;83;
0;0;0;0;53;84;84;66;81;81;73;82;82;74;83;83;81;83;83;
0;0;0;0;53;84;84;66;81;81;73;82;82;74;83;83;81;83;83;
0;0;0;0;53;84;84;66;81;81;73;82;82;74;83;83;81;83;83;
0;0;0;0;53;84;84;67;81;81;74;82;82;75;83;83;81;83;83;
0;0;0;0;53;84;84;67;81;81;74;82;82;75;83;83;81;83;83;
0;0;0;0;53;84;84;67;81;81;74;82;82;75;83;83;81;83;83;
0;0;0;0;53;84;84;67;81;81;74;82;82;75;83;83;81;83;83;
0;0;0;0;53;84;84;67;81;81;74;82;82;75;83;83;81;83;83;
0;0;0;0;53;84;84;67;81;81;74;82;82;75;83;83;81;83;83;
0;0;0;0;53;84;84;67;81;81;74;82;82;75;83;83;81;83;83;
0;0;0;0;53;84;84;67;81;81;74;82;82;75;83;83;81;83;83;
0;0;0;0;53;84;84;67;81;81;74;82;82;75;83;83;81;83;83;
0;0;0;0;53;84;84;67;81;81;74;82;82;75;83;83;81;83;83;
0;0;0;0;53;84;84;67;81;81;74;82;82;75;83;83;81;83;83;
0;0;0;0;53;84;84;67;81;81;74;82;82;75;83;83;81;83;83;
0;0;0;0;53;84;84;67;81;81;74;82;82;75;83;83;81;83;83;
0;0;0;0;53;84;84;67;81;81;74;82;82;75;83;83;81;83;83;
0;0;0;0;53;84;84;67;81;81;74;82;82;75;83;83;81;83;83;
0;0;0;0;53;84;84;67;81;81;74;82;82;75;83;83;81;83;83;
0;0;0;0;53;84;84;67;81;81;74;82;82;75;83;83;81;83;83;
0;0;0;0;53;84;84;67;81;81;74;82;82;75;83;83;81;83;83;
0;0;0;0;53;84;84;67;81;81;74;82;82;75;83;83;81;83;83;
0;0;0;0;53;84;84;67;81;81;74;82;82;75;83;83;81;83;83;
0;0;0;0;53;84;84;67;81;81;74;82;82;75;83;83;81;83;83;
0;0;0;0;53;84;84;67;81;81;74;82;82;75;83;83;81;83;83;
0;0;0;0;53;84;84;67;81;81;74;82;82;75;83;83;81;83;83;
0;0;0;0;53;84;84;67;81;81;74;82;82;75;83;83;81;83;83;
0;0;0;0;53;84;84;67;81;81;74;82;82;75;83;83;81;83;83;
0;0;0;0;54;84;84;69;82;82;75;82;82;75;83;83;81;83;83;
0;0;0;0;54;84;84;69;82;82;75;82;82;75;83;83;81;83;83;
0;0;0;0;54;84;84;69;82;82;75;82;82;75;83;83;81;83;83;
0;0;0;0;54;84;84;69;82;82;75;82;82;75;83;83;81;83;83;
0;0;0;0;54;84;84;69;82;82;75;82;82;75;83;83;81;83;83;
0;0;0;0;54;84;84;69;82;82;75;82;82;75;83;83;81;83;83;
0;0;0;0;54;84;84;69;82;82;75;82;82;75;83;83;81;83;83;
0;0;0;0;54;84;84;69;82;82;75;82;82;75;83;83;81;83;83;
0;0;0;0;54;84;84;69;82;82;75;82;82;75;83;83;81;83;83;
0;0;0;0;54;84;84;69;82;82;75;82;82;75;83;83;81;83;83;
0;0;0;0;54;84;84;69;82;82;75;82;82;75;83;83;81;83;83;
0;0;0;0;55;84;84;70;82;82;75;83;83;75;83;83;81;83;83;
0;0;0;0;55;84;84;70;82;82;75;83;83;75;83;83;81;83;83;
0;0;0;0;55;84;84;70;82;82;75;83;83;75;83;83;81;83;83;
0;0;0;0;55;84;84;70;82;82;75;83;83;75;83;83;81;83;83;
0;0;0;0;55;84;84;70;82;82;75;83;83;75;83;83;81;83;83;
0;0;0;0;55;84;84;70;82;82;75;83;83;75;83;83;81;83;83;
0;0;0;0;55;84;84;70;82;82;75;83;83;75;83;83;81;83;83;
0;0;0;0;55;84;84;70;82;82;75;83;83;75;83;83;81;83;83;
0;0;0;0;55;84;84;70;82;82;75;83;83;75;83;83;81;83;83;
0;0;0;0;55;84;84;70;82;82;75;83;83;75;83;83;81;83;83;
0;0;0;0;55;84;84;70;82;82;75;83;83;75;83;83;81;83;83;
0;0;0;0;55;84;84;70;82;82;75;83;83;75;83;83;81;83;83;
0;0;0;0;55;84;84;70;82;82;75;83;83;75;83;83;81;83;83;
0;0;0;0;55;84;84;70;82;82;75;83;83;75;83;83;81;83;83;
0;0;0;0;55;84;84;70;82;82;75;83;83;75;83;83;81;83;83;
0;0;0;0;55;84;84;70;82;82;75;83;83;75;83;83;81;83;83;
0;0;0;0;55;84;84;70;82;82;75;83;83;75;83;83;81;83;83;
0;0;0;0;55;84;84;70;82;82;75;83;83;75;83;83;81;83;83;
0;0;0;0;55;84;84;70;82;82;75;83;83;75;83;83;81;83;83;
0;0;0;0;55;84;84;70;82;82;75;83;83;75;83;83;81;83;83;
0;0;0;0;55;84;84;70;82;82;75;83;83;75;83;83;81;83;83;
0;0;0;0;55;84;84;70;82;82;75;83;83;75;83;83;81;83;83;
0;0;0;0;55;84;84;70;82;82;75;83;83;75;83;83;81;83;83;
0;0;0;0;55;84;84;70;82;82;75;83;83;75;83;83;81;83;83;
0;0;0;0;55;84;84;70;82;82;75;83;83;75;83;83;81;83;83;
0;0;0;0;55;84;84;70;82;82;75;83;83;75;83;83;81;83;83;
0;0;0;0;55;84;84;70;82;82;75;83;83;75;83;83;81;83;83;
0;0;0;0;55;84;84;70;82;82;75;83;83;75;83;83;81;83;83;
0;0;0;0;55;84;84;70;82;82;75;83;83;75;83;83;81;83;83;
0;0;0;0;55;84;84;70;82;82;75;83;83;75;83;83;81;83;83;
0;0;0;0;55;84;84;70;82;82;75;83;83;75;83;83;81;83;83;
0;0;0;0;55;84;84;70;82;82;75;83;83;75;83;83;81;83;83;
0;0;0;0;55;84;84;70;82;82;75;83;83;75;83;83;81;83;83;
0;0;0;0;55;84;84;70;82;82;75;83;83;75;83;83;81;83;83;
0;0;0;0;55;84;84;70;82;82;75;83;83;75;83;83;81;83;83;
0;0;0;0;55;84;84;70;82;82;75;83;83;75;83;83;81;83;83;
0;0;0;0;55;84;84;70;82;82;75;83;83;75;83;83;81;83;83;
0;0;0;0;55;84;84;70;82;82;75;83;83;75;83;83;81;83;83;
0;0;0;0;55;84;84;70;82;82;75;83;83;75;83;83;81;83;83;
0;0;0;0;55;84;84;70;82;82;75;83;83;75;83;83;81;83;83;
0;0;0;0;55;84;84;70;82;82;75;83;83;75;83;83;81;83;83;
0;0;0;0;55;84;84;70;82;82;75;83;83;75;83;83;81;83;83;
0;0;0;1;55;84;84;70;82;82;75;83;83;75;83;83;81;83;83;
0;0;0;0;55;84;84;70;82;82;75;83;83;75;83;83;81;83;83;
0;0;0;0;55;84;84;70;82;82;75;83;83;75;83;83;81;83;83;
0;0;0;0;55;84;84;70;82;82;75;83;83;75;83;83;81;83;83;
0;0;0;0;55;84;84;70;82;82;75;83;83;75;83;83;81;83;83;
0;0;0;0;55;84;84;70;82;82;75;83;83;75;83;83;81;83;83;
0;0;0;0;55;84;84;70;82;82;75;83;83;75;83;83;81;83;83;
0;0;0;0;55;84;84;70;82;82;75;83;83;75;83;83;81;83;83;
0;0;0;0;55;84;84;70;82;82;75;83;83;75;83;83;81;83;83;
0;0;0;0;55;84;84;70;82;82;75;83;83;75;83;83;81;83;83;
0;0;0;0;55;84;84;70;82;82;75;83;83;75;83;83;81;83;83;
0;0;0;0;55;84;84;70;82;82;75;83;83;75;83;83;81;83;83;
0;0;0;0;55;84;84;70;82;82;75;83;83;75;83;83;81;83;83;
0;0;0;0;55;84;84;70;82;82;75;83;83;75;83;83;81;83;83;
0;0;0;0;55;84;84;70;82;82;75;83;83;75;83;83;81;83;83;
0;0;0;0;55;84;84;70;82;82;75;83;83;75;83;83;81;83;83;
0;0;0;0;55;84;84;70;82;82;75;83;83;75;83;83;81;83;83;
0;0;0;0;55;84;84;70;82;82;75;83;83;75;83;83;81;83;83;
0;0;0;0;55;84;84;70;82;82;75;83;83;75;83;83;81;83;83;
0;0;0;0;55;84;84;70;82;82;75;83;83;75;83;83;81;83;83;
0;0;0;0;55;84;84;70;82;82;75;83;83;75;83;83;81;83;83;
0;0;0;0;55;84;84;70;82;82;75;83;83;75;83;83;81;83;83;
0;0;0;0;55;84;84;70;82;82;75;83;83;75;83;83;81;83;83;
0;0;0;0;55;84;84;70;82;82;75;83;83;75;83;83;81;83;83;
0;0;0;0;55;84;84;70;82;82;75;83;83;75;83;83;81;83;83;
0;0;0;0;55;84;84;70;82;82;75;83;83;75;83;83;81;83;83;
0;0;0;0;55;84;84;70;82;82;75;83;83;75;83;83;81;83;83;
0;0;0;0;56;84;84;72;83;83;75;83;83;76;83;83;81;83;83;
0;0;0;0;56;84;84;72;83;83;75;83;83;76;83;83;81;83;83;
0;0;0;0;56;84;84;72;83;83;75;83;83;76;83;83;81;83;83;
0;0;0;0;56;84;84;72;83;83;75;83;83;76;83;83;81;83;83;
0;0;0;0;56;84;84;72;83;83;75;83;83;76;83;83;81;83;83;
0;0;0;0;56;84;84;72;83;83;75;83;83;76;83;83;81;83;83;
0;0;0;0;56;84;84;72;83;83;75;83;83;76;83;83;81;83;83;
0;0;0;0;56;84;84;72;83;83;75;83;83;76;83;83;81;83;83;
0;0;0;0;56;84;84;72;83;83;75;83;83;76;83;83;81;83;83;
0;0;0;0;56;84;84;72;83;83;75;83;83;76;83;83;81;83;83;
0;0;0;0;56;84;84;72;83;83;75;83;83;76;83;83;81;83;83;
0;0;0;0;56;84;84;72;83;83;75;83;83;76;83;83;81;83;83;
0;0;0;0;56;84;84;72;83;83;75;83;83;76;83;83;81;83;83;
0;0;0;0;56;84;84;72;83;83;75;83;83;76;83;83;81;83;83;
0;0;0;0;56;84;84;72;83;83;75;83;83;76;83;83;81;83;83;
0;0;0;0;56;84;84;72;83;83;75;83;83;76;83;83;81;83;83;
0;0;0;0;56;84;84;72;83;83;75;83;83;76;83;83;81;83;83;
0;0;0;0;56;84;84;72;83;83;75;83;83;76;83;83;81;83;83;
0;0;0;0;56;84;84;72;83;83;75;83;83;76;83;83;81;83;83;
0;0;0;0;56;84;84;72;83;83;75;83;83;76;83;83;81;83;83;
0;0;0;0;56;84;84;72;83;83;75;83;83;76;83;83;81;83;83;
0;0;0;0;56;84;84;72;83;83;75;83;83;76;83;83;81;83;83;
0;0;0;0;56;84;84;72;83;83;75;83;83;76;83;83;81;83;83;
0;0;0;0;56;84;84;72;83;83;75;83;83;76;83;83;81;83;83;
0;0;0;0;56;84;84;72;83;83;75;83;83;76;83;83;81;83;83;
0;0;0;0;56;84;84;72;83;83;75;83;83;76;83;83;81;83;83;
0;0;0;0;56;84;84;72;83;83;75;83;83;76;83;83;81;83;83;
0;0;0;0;56;84;84;72;83;83;75;83;83;76;83;83;81;83;83;
0;0;0;0;56;84;84;72;83;83;75;83;83;76;83;83;81;83;83;
0;0;0;0;56;84;84;72;83;83;75;83;83;76;83;83;81;83;83;
0;0;0;0;56;84;84;72;83;83;75;83;83;76;83;83;81;83;83;
0;0;0;0;56;84;84;72;83;83;75;83;83;76;83;83;81;83;83;
0;0;0;0;56;84;84;72;83;83;75;83;83;76;83;83;81;83;83;
0;0;0;0;56;84;84;72;83;83;75;83;83;76;83;83;81;83;83;
0;0;0;0;56;84;84;72;83;83;75;83;83;76;83;83;81;83;83;
0;0;0;0;56;84;84;72;83;83;75;83;83;76;83;83;81;83;83;
0;0;0;0;56;84;84;72;83;83;75;83;83;76;83;83;81;83;83;
0;0;0;0;56;84;84;72;83;83;75;83;83;76;83;83;81;83;83;
0;0;0;0;56;84;84;72;83;83;75;83;83;76;83;83;81;83;83;
0;0;0;0;56;84;84;72;83;83;75;83;83;76;83;83;81;83;83;
0;0;0;0;56;84;84;72;83;83;75;83;83;76;83;83;81;83;83;
0;0;0;0;56;84;84;72;83;83;75;83;83;76;83;83;81;83;83;
0;0;0;0;56;84;84;72;83;83;75;83;83;76;83;83;81;83;83;
0;0;0;0;56;84;84;72;83;83;75;83;83;76;83;83;81;83;83;
0;0;0;0;56;84;84;72;83;83;75;83;83;76;83;83;81;83;83;
0;0;0;0;56;84;84;72;83;83;75;83;83;76;83;83;81;83;83;
0;0;0;0;56;84;84;72;83;83;75;83;83;76;83;83;81;83;83;
0;0;0;0;56;84;84;72;83;83;75;83;83;76;83;83;81;83;83;
0;0;0;0;56;84;84;72;83;83;75;83;83;76;83;83;81;83;83;
0;0;0;0;56;84;84;72;83;83;75;83;83;76;83;83;81;83;83;
0;0;0;0;56;84;84;72;83;83;75;83;83;76;83;83;81;83;83;
0;0;0;0;56;84;84;72;83;83;75;83;83;76;83;83;81;83;83;
0;0;0;0;56;84;84;72;83;83;75;83;83;76;83;83;81;83;83;
0;0;0;0;56;84;84;72;83;83;75;83;83;76;83;83;81;83;83;
0;0;0;0;56;84;84;72;83;83;75;83;83;76;83;83;81;83;83;
0;0;0;0;56;84;84;72;83;83;75;83;83;76;83;83;81;83;83;
0;0;0;0;56;84;84;72;83;83;75;83;83;76;83;83;81;83;83;
0;0;0;0;56;84;84;72;83;83;75;83;83;76;83;83;81;83;83;
0;0;0;0;56;84;84;72;83;83;75;83;83;76;83;83;81;83;83;
0;0;0;0;56;84;84;72;83;83;75;83;83;76;83;83;81;83;83;
0;0;0;0;56;84;84;72;83;83;75;83;83;76;83;83;81;83;83;
0;0;0;0;57;84;84;73;83;83;76;83;83;76;83;83;81;83;83;
0;0;0;0;57;84;84;73;83;83;76;83;83;76;83;83;81;83;83;
0;0;0;0;57;84;84;73;83;83;76;83;83;76;83;83;81;83;83;
0;0;0;0;57;84;84;73;83;83;76;83;83;76;83;83;81;83;83;
0;0;0;0;57;84;84;73;83;83;76;83;83;76;83;83;81;83;83;
0;0;0;0;57;84;84;73;83;83;76;83;83;76;83;83;81;83;83;
0;0;0;0;57;84;84;73;83;83;76;83;83;76;83;83;81;83;83;
0;0;0;0;57;84;84;73;83;83;76;83;83;76;83;83;81;83;83;
0;0;0;0;57;84;84;73;83;83;76;83;83;76;83;83;81;83;83;
0;0;0;0;57;84;84;73;83;83;76;83;83;76;83;83;81;83;83;
0;0;0;0;57;84;84;73;83;83;76;83;83;76;83;83;81;83;83;
0;0;0;0;57;84;84;73;83;83;76;83;83;76;83;83;81;83;83;
0;0;0;0;57;84;84;73;83;83;76;83;83;76;83;83;81;83;83;
0;0;0;0;57;84;84;73;83;83;76;83;83;76;83;83;81;83;83;
0;0;0;0;57;84;84;73;83;83;76;83;83;76;83;83;81;83;83;
0;0;0;0;57;84;84;73;83;83;76;83;83;76;83;83;81;83;83;
0;0;0;0;57;84;84;73;83;83;76;83;83;76;83;83;81;83;83;
0;0;0;0;57;84;84;73;83;83;76;83;83;76;83;83;81;83;83;
0;0;0;0;57;84;84;73;83;83;76;83;83;76;83;83;81;83;83;
0;0;0;0;57;84;84;73;83;83;76;83;83;76;83;83;81;83;83;
0;0;0;0;57;84;84;73;83;83;76;83;83;76;83;83;81;83;83;
0;0;0;0;57;84;84;73;83;83;76;83;83;76;83;83;81;83;83;
0;0;0;0;57;84;84;73;83;83;76;83;83;76;83;83;81;83;83;
0;0;0;0;57;84;84;73;83;83;76;83;83;76;83;83;81;83;83;
0;0;0;0;57;84;84;73;83;83;76;83;83;76;83;83;81;83;83;
0;0;0;0;57;84;84;73;83;83;76;83;83;76;83;83;81;83;83;
0;0;0;0;58;84;84;73;83;83;76;83;83;77;83;83;81;83;83;
0;0;0;0;58;84;84;73;83;83;76;83;83;77;83;83;81;83;83;
0;0;0;0;58;84;84;73;83;83;76;83;83;77;83;83;81;83;83;
0;0;0;0;58;84;84;73;83;83;76;83;83;77;83;83;81;83;83;
0;0;0;0;59;84;84;73;84;84;76;83;83;77;83;83;81;83;83;
0;0;0;0;59;84;84;73;84;84;76;83;83;77;83;83;81;83;83;
0;0;0;0;59;84;84;73;84;84;76;83;83;77;83;83;81;83;83;
0;0;0;0;59;84;84;73;84;84;76;83;83;77;83;83;81;83;83;
0;0;0;0;59;84;84;73;84;84;76;83;83;77;83;83;81;83;83;
0;0;0;0;59;84;84;73;84;84;76;83;83;77;83;83;81;83;83;
0;0;0;0;59;84;84;73;84;84;76;83;83;77;83;83;81;83;83;
0;0;0;0;59;84;84;73;84;84;76;83;83;77;83;83;81;83;83;
0;0;0;0;59;84;84;73;84;84;76;83;83;77;83;83;81;83;83;
0;0;0;0;59;84;84;73;84;84;76;83;83;77;83;83;81;83;83;
0;0;0;0;59;84;84;73;84;84;76;83;83;77;83;83;81;83;83;
0;0;0;0;59;84;84;73;84;84;76;83;83;77;83;83;81;83;83;
0;0;0;0;59;84;84;73;84;84;76;83;83;77;83;83;81;83;83;
0;0;0;0;59;84;84;73;84;84;76;83;83;77;83;83;81;83;83;
0;0;0;0;59;84;84;73;84;84;76;83;83;77;83;83;81;83;83;
0;0;0;0;59;84;84;73;84;84;76;83;83;77;83;83;81;83;83;
0;0;0;0;59;84;84;73;84;84;76;83;83;77;83;83;81;83;83;
0;0;0;0;59;84;84;73;84;84;76;83;83;77;83;83;81;83;83;
0;0;0;0;59;84;84;73;84;84;76;83;83;77;83;83;81;83;83;
0;0;0;0;59;84;84;73;84;84;76;83;83;77;83;83;81;83;83;
0;0;0;0;59;84;84;73;84;84;76;83;83;77;83;83;81;83;83;
0;0;0;0;59;84;84;73;84;84;76;83;83;77;83;83;81;83;83;
0;0;0;0;59;84;84;73;84;84;76;83;83;77;83;83;81;83;83;
0;0;0;0;59;84;84;73;84;84;76;83;83;77;83;83;81;83;83;
0;0;0;0;59;84;84;73;84;84;76;83;83;77;83;83;81;83;83;
0;0;0;0;59;84;84;73;84;84;76;83;83;77;83;83;81;83;83;
0;0;0;0;59;84;84;73;84;84;76;83;83;77;83;83;81;83;83;
0;0;0;0;59;84;84;73;84;84;76;83;83;77;83;83;81;83;83;
0;0;0;0;59;84;84;73;84;84;76;83;83;77;83;83;81;83;83;
0;0;0;0;59;84;84;73;84;84;76;83;83;77;83;83;81;83;83;
0;0;0;0;59;84;84;73;84;84;76;83;83;77;83;83;81;83;83;
0;0;0;0;59;84;84;73;84;84;76;83;83;77;83;83;81;83;83;
0;0;0;0;59;84;84;73;84;84;76;83;83;77;83;83;81;83;83;
0;0;0;0;59;84;84;73;84;84;76;83;83;77;83;83;81;83;83;
0;0;0;0;59;84;84;73;84;84;76;83;83;77;83;83;81;83;83;
0;0;0;0;59;84;84;73;84;84;76;83;83;77;83;83;81;83;83;
0;0;0;0;59;84;84;73;84;84;76;83;83;77;83;83;81;83;83;
0;0;0;0;59;84;84;73;84;84;76;83;83;77;83;83;81;83;83;
0;0;0;0;59;84;84;73;84;84;76;83;83;77;83;83;81;83;83;
0;0;0;0;60;84;84;73;84;84;77;83;83;77;83;83;81;83;83;
0;0;0;0;60;84;84;73;84;84;77;83;83;77;83;83;81;83;83;
0;0;0;0;60;84;84;73;84;84;77;83;83;77;83;83;81;83;83;
0;0;0;0;60;84;84;73;84;84;77;83;83;77;83;83;81;83;83;
0;0;0;0;60;84;84;73;84;84;77;83;83;77;83;83;81;83;83;
0;0;0;0;60;84;84;73;84;84;77;83;83;77;83;83;81;83;83;
0;0;0;0;60;84;84;73;84;84;77;83;83;77;83;83;81;83;83;
0;0;0;0;60;84;84;73;84;84;77;83;83;77;83;83;81;83;83;
0;0;0;0;60;84;84;73;84;84;77;83;83;77;83;83;81;83;83;
0;0;0;0;60;84;84;74;84;84;77;83;83;77;84;84;81;83;83;
0;0;0;0;60;84;84;74;84;84;77;83;83;77;84;84;81;83;83;
0;0;0;0;60;84;84;74;84;84;77;83;83;77;84;84;81;83;83;
0;0;0;0;60;84;84;74;84;84;77;83;83;77;84;84;81;83;83;
0;0;0;0;60;84;84;74;84;84;77;83;83;77;84;84;81;83;83;
0;0;0;0;60;84;84;74;84;84;77;83;83;77;84;84;81;83;83;
0;0;0;0;60;84;84;74;84;84;77;83;83;77;84;84;81;83;83;
0;0;0;0;60;84;84;74;84;84;77;83;83;77;84;84;81;83;83;
0;0;0;0;60;84;84;74;84;84;77;83;83;77;84;84;81;83;83;
0;0;0;0;60;84;84;74;84;84;77;83;83;77;84;84;81;83;83;
0;0;0;0;60;84;84;74;84;84;77;83;83;77;84;84;81;83;83;
0;0;0;0;60;84;84;74;84;84;77;83;83;77;84;84;81;83;83;
0;0;0;0;60;84;84;74;84;84;77;83;83;77;84;84;81;83;83;
0;0;0;0;60;84;84;74;84;84;77;83;83;77;84;84;81;83;83;
0;0;0;0;60;84;84;74;84;84;77;83;83;77;84;84;81;83;83;
0;0;0;0;60;84;84;74;84;84;77;83;83;77;84;84;81;83;83;
0;0;0;0;60;84;84;74;84;84;77;83;83;77;84;84;81;83;83;
0;0;0;0;60;84;84;74;84;84;77;83;83;77;84;84;81;83;83;
0;0;0;0;60;84;84;74;84;84;77;83;83;77;84;84;81;83;83;
0;0;0;0;60;84;84;74;84;84;77;83;83;77;84;84;81;83;83;
0;0;0;0;60;84;84;74;84;84;77;83;83;77;84;84;81;83;83;
0;0;0;0;60;84;84;74;84;84;77;83;83;77;84;84;81;83;83;
0;0;0;0;60;84;84;74;84;84;77;83;83;77;84;84;81;83;83;
0;0;0;0;60;84;84;74;84;84;77;83;83;77;84;84;81;83;83;
0;0;0;0;60;84;84;74;84;84;77;83;83;77;84;84;81;83;83;
0;0;0;0;60;84;84;74;84;84;77;83;83;77;84;84;81;83;83;
0;0;0;0;60;84;84;74;84;84;77;83;83;77;84;84;81;83;83;
0;0;0;0;60;84;84;74;84;84;77;83;83;77;84;84;81;83;83;
0;0;0;0;60;84;84;74;84;84;77;83;83;77;84;84;81;83;83;
0;0;0;0;60;84;84;74;84;84;77;83;83;77;84;84;81;83;83;
0;0;0;0;60;84;84;74;84;84;77;83;83;77;84;84;81;83;83;
0;0;0;0;60;84;84;74;84;84;77;83;83;77;84;84;81;83;83;
0;0;0;0;60;84;84;74;84;84;77;83;83;77;84;84;81;83;83;
0;0;0;0;60;84;84;74;84;84;77;83;83;77;84;84;81;83;83;
0;0;0;0;60;84;84;74;84;84;77;83;83;77;84;84;81;83;83;
0;0;0;0;60;84;84;74;84;84;77;83;83;77;84;84;81;83;83;
0;0;0;0;60;84;84;74;84;84;77;83;83;77;84;84;81;83;83;
0;0;0;0;60;84;84;74;84;84;77;83;83;77;84;84;81;83;83;
0;0;0;0;60;84;84;74;84;84;77;83;83;77;84;84;81;83;83;
0;0;0;0;60;84;84;74;84;84;77;83;83;77;84;84;81;83;83;
0;0;0;0;60;84;84;74;84;84;77;83;83;77;84;84;81;83;83;
0;0;0;0;60;84;84;74;84;84;77;83;83;77;84;84;81;83;83;
0;0;0;0;60;84;84;74;84;84;76;83;83;78;84;84;81;83;83;
0;0;0;0;60;84;84;74;84;84;76;83;83;78;84;84;81;83;83;
0;0;0;0;60;84;84;74;84;84;76;83;83;78;84;84;81;83;83;
0;0;0;0;60;84;84;74;84;84;77;83;83;79;84;84;81;83;83;
0;0;0;0;60;84;84;74;84;84;77;83;83;79;84;84;81;83;83;
0;0;0;0;60;84;84;74;84;84;77;83;83;79;84;84;81;83;83;
0;0;0;0;60;84;84;74;84;84;77;83;83;79;84;84;81;83;83;
0;0;0;0;60;84;84;74;84;84;77;83;83;79;84;84;81;83;83;
0;0;0;0;60;84;84;74;84;84;77;83;83;79;84;84;81;83;83;
0;0;0;0;60;84;84;74;84;84;77;83;83;79;84;84;81;83;83;
0;0;0;0;60;84;84;74;84;84;77;83;83;79;84;84;81;83;83;
0;0;0;0;60;84;84;74;84;84;77;83;83;79;84;84;81;83;83;
0;0;0;0;60;84;84;74;84;84;77;83;83;79;84;84;81;83;83;
0;0;0;0;60;84;84;74;84;84;77;83;83;79;84;84;81;83;83;
0;0;0;0;60;84;84;74;84;84;77;83;83;79;84;84;81;83;83;
0;0;0;0;61;84;84;74;84;84;77;83;83;79;84;84;82;83;83;
0;0;0;0;61;84;84;74;84;84;77;83;83;79;84;84;82;83;83;
0;0;0;0;61;84;84;74;84;84;77;83;83;79;84;84;82;83;83;
0;0;0;0;61;84;84;74;84;84;77;83;83;79;84;84;82;83;83;
0;0;0;0;61;84;84;74;84;84;77;83;83;79;84;84;82;83;83;
0;0;0;0;61;84;84;74;84;84;77;83;83;79;84;84;82;83;83;
0;0;0;0;61;84;84;74;84;84;77;83;83;79;84;84;82;83;83;
0;0;0;0;61;84;84;74;84;84;77;83;83;79;84;84;82;83;83;
0;0;0;0;61;84;84;75;84;84;77;83;83;79;84;84;82;83;83;
0;0;0;0;61;84;84;75;84;84;77;83;83;79;84;84;82;83;83;
0;0;0;0;61;84;84;75;84;84;77;83;83;79;84;84;82;83;83;
0;0;0;0;61;84;84;75;84;84;77;83;83;79;84;84;82;83;83;
0;0;0;0;61;84;84;75;84;84;77;83;83;79;84;84;82;83;83;
0;0;0;0;61;84;84;75;84;84;77;83;83;79;84;84;82;83;83;
0;0;0;0;61;84;84;75;84;84;77;83;83;79;84;84;82;83;83;
0;0;0;0;61;84;84;75;84;84;77;83;83;79;84;84;82;83;83;
0;0;0;0;61;84;84;75;84;84;77;83;83;79;84;84;82;83;83;
0;0;0;0;61;84;84;75;84;84;77;83;83;79;84;84;82;83;83;
0;0;0;0;61;84;84;75;84;84;77;83;83;79;84;84;82;83;83;
0;0;0;0;61;84;84;75;84;84;77;83;83;79;84;84;82;84;84;
0;0;0;0;61;84;84;75;84;84;77;83;83;79;84;84;82;84;84;
0;0;0;0;61;84;84;75;84;84;77;83;83;79;84;84;82;84;84;
0;0;0;0;61;84;84;75;84;84;77;83;83;79;84;84;82;84;84;
0;0;0;0;61;84;84;75;84;84;77;83;83;79;84;84;82;84;84;
0;0;0;0;61;84;84;75;84;84;77;83;83;79;84;84;82;84;84;
0;0;0;0;61;84;84;75;84;84;77;83;83;79;84;84;82;84;84;
0;0;0;0;61;84;84;75;84;84;77;83;83;79;84;84;82;84;84;
0;0;0;0;61;84;84;75;84;84;77;83;83;79;84;84;82;84;84;
0;0;0;0;61;84;84;75;84;84;77;83;83;79;84;84;82;84;84;
0;0;0;0;61;84;84;75;84;84;77;83;83;79;84;84;82;84;84;
0;0;0;0;61;84;84;75;84;84;77;83;83;79;84;84;82;84;84;
0;0;0;0;61;84;84;75;84;84;77;83;83;79;84;84;82;84;84;
0;0;0;0;61;84;84;75;84;84;77;83;83;79;84;84;82;84;84;
0;0;0;0;61;84;84;75;84;84;77;83;83;79;84;84;82;84;84;
0;0;0;0;61;84;84;75;84;84;77;83;83;79;84;84;82;84;84;
0;0;0;0;61;84;84;75;84;84;77;83;83;79;84;84;82;84;84;
0;0;0;0;61;84;84;75;84;84;77;83;83;79;84;84;82;84;84;
0;0;0;0;61;84;84;75;84;84;77;83;83;79;84;84;82;84;84;
0;0;0;0;61;84;84;75;84;84;77;83;83;79;84;84;82;84;84;
0;0;0;0;61;84;84;75;84;84;77;83;83;79;84;84;82;84;84;
0;0;0;0;61;84;84;75;84;84;77;83;83;79;84;84;82;84;84;
0;0;0;0;61;84;84;75;84;84;77;83;83;79;84;84;82;84;84;
0;0;0;0;61;84;84;75;84;84;77;83;83;79;84;84;82;84;84;
0;0;0;0;61;84;84;75;84;84;77;83;83;79;84;84;82;84;84;
0;0;0;0;61;84;84;75;84;84;77;83;83;79;84;84;82;84;84;
0;0;0;0;61;84;84;75;84;84;77;83;83;79;84;84;82;84;84;
0;0;0;0;61;84;84;75;84;84;77;83;83;79;84;84;82;84;84;
0;0;0;0;61;84;84;75;84;84;77;83;83;79;84;84;82;84;84;
0;0;0;0;61;84;84;75;84;84;77;83;83;79;84;84;82;84;84;
0;0;0;0;61;84;84;75;84;84;77;83;83;79;84;84;82;84;84;
0;0;0;0;61;84;84;75;84;84;77;83;83;79;84;84;82;84;84;
0;0;0;0;61;84;84;75;84;84;77;83;83;79;84;84;82;84;84;
0;0;0;0;61;84;84;75;84;84;77;83;83;79;84;84;82;84;84;
0;0;0;0;61;84;84;75;84;84;77;83;83;79;84;84;82;84;84;
0;0;0;0;61;84;84;75;84;84;77;83;83;79;84;84;82;84;84;
0;0;0;0;61;84;84;75;84;84;77;83;83;79;84;84;82;84;84;
0;0;0;0;61;84;84;75;84;84;77;83;83;79;84;84;82;84;84;
0;0;0;0;61;84;84;75;84;84;77;83;83;79;84;84;82;84;84;
0;0;0;0;61;84;84;75;84;84;77;83;83;79;84;84;82;84;84;
0;0;0;0;61;84;84;75;84;84;77;83;83;79;84;84;82;84;84;
0;0;0;0;61;84;84;75;84;84;77;83;83;79;84;84;82;84;84;
0;0;0;0;61;84;84;75;84;84;77;83;83;79;84;84;82;84;84;
0;0;0;0;61;84;84;75;84;84;77;83;83;79;84;84;82;84;84;
0;0;0;0;61;84;84;75;84;84;77;83;83;79;84;84;82;84;84;
0;0;0;0;61;84;84;75;84;84;77;83;83;79;84;84;82;84;84;
0;0;0;0;61;84;84;75;84;84;77;83;83;79;84;84;82;84;84;
0;0;0;0;61;84;84;75;84;84;77;83;83;79;84;84;82;84;84;
0;0;0;0;61;84;84;75;84;84;77;83;83;79;84;84;82;84;84;
0;0;0;0;61;84;84;75;84;84;77;83;83;79;84;84;82;84;84;
0;0;0;0;61;84;84;75;84;84;77;83;83;79;84;84;82;84;84;
0;0;0;0;61;84;84;75;84;84;77;83;83;79;84;84;82;84;84;
0;0;0;0;61;84;84;75;84;84;77;83;83;79;84;84;82;84;84;
0;0;0;0;61;84;84;75;84;84;77;83;83;79;84;84;82;84;84;
0;0;0;0;61;84;84;75;84;84;77;83;83;79;84;84;82;84;84;
0;0;0;0;61;84;84;75;84;84;77;83;83;79;84;84;82;84;84;
0;0;0;0;61;84;84;75;84;84;77;83;83;79;84;84;82;84;84;
0;0;0;0;61;84;84;75;84;84;77;83;83;79;84;84;82;84;84;
0;0;0;0;61;84;84;75;84;84;77;83;83;79;84;84;82;84;84;
0;0;0;0;61;84;84;75;84;84;77;83;83;79;84;84;82;84;84;
0;0;0;0;61;84;84;75;84;84;77;83;83;79;84;84;82;84;84;
0;0;0;0;61;84;84;75;84;84;77;83;83;79;84;84;82;84;84;
0;0;0;0;61;84;84;75;84;84;77;83;83;79;84;84;82;84;84;
0;0;0;0;61;84;84;75;84;84;77;83;83;79;84;84;82;84;84;
0;0;0;0;61;84;84;75;84;84;77;83;83;79;84;84;82;84;84;
0;0;0;0;61;84;84;75;84;84;77;83;83;79;84;84;82;84;84;
0;0;0;0;61;84;84;75;84;84;77;83;83;79;84;84;82;84;84;
0;0;0;0;61;84;84;75;84;84;77;83;83;79;84;84;82;84;84;
0;0;0;0;61;84;84;75;84;84;77;83;83;79;84;84;82;84;84;
0;0;0;0;61;84;84;75;84;84;77;83;83;79;84;84;82;84;84;
0;0;0;0;61;84;84;75;84;84;77;83;83;79;84;84;82;84;84;
0;0;0;0;61;84;84;75;84;84;77;83;83;79;84;84;82;84;84;
0;0;0;0;61;84;84;75;84;84;77;83;83;79;84;84;82;84;84;
0;0;0;0;61;84;84;75;84;84;77;83;83;79;84;84;82;84;84;
0;0;0;0;61;84;84;75;84;84;77;83;83;79;84;84;82;84;84;
0;0;0;0;61;84;84;75;84;84;77;83;83;79;84;84;82;84;84;
0;0;0;0;61;84;84;75;84;84;77;83;83;79;84;84;82;84;84;
0;0;0;0;61;84;84;75;84;84;77;83;83;79;84;84;82;84;84;
0;0;0;0;61;84;84;75;84;84;77;83;83;79;84;84;82;84;84;
0;0;0;0;61;84;84;75;84;84;77;83;83;79;84;84;82;84;84;
0;0;0;0;61;84;84;75;84;84;77;83;83;79;84;84;82;84;84;
0;0;0;0;61;84;84;75;84;84;77;83;83;79;84;84;82;84;84;
0;0;0;0;61;84;84;75;84;84;77;83;83;79;84;84;82;84;84;
0;0;0;0;61;84;84;75;84;84;77;83;83;79;84;84;82;84;84;
0;0;0;0;61;84;84;75;84;84;77;83;83;79;84;84;82;84;84;
0;0;0;0;61;84;84;75;84;84;77;83;83;79;84;84;82;84;84;
0;0;0;0;61;84;84;75;84;84;77;83;83;79;84;84;82;84;84;
0;0;0;0;61;84;84;75;84;84;77;83;83;79;84;84;82;84;84;
0;0;0;0;61;84;84;75;84;84;77;83;83;79;84;84;82;84;84;
0;0;0;0;61;84;84;75;84;84;77;83;83;79;84;84;82;84;84;
0;0;0;0;61;84;84;75;84;84;77;83;83;79;84;84;82;84;84;
0;0;0;0;61;84;84;75;84;84;77;83;83;79;84;84;82;84;84;
0;0;0;0;61;84;84;75;84;84;77;83;83;79;84;84;82;84;84;
0;0;0;0;61;84;84;75;84;84;77;83;83;79;84;84;82;84;84;
0;0;0;0;61;84;84;75;84;84;77;83;83;79;84;84;82;84;84;
0;0;0;0;61;84;84;75;84;84;77;83;83;79;84;84;82;84;84;
0;0;0;0;61;84;84;75;84;84;77;83;83;79;84;84;82;84;84;
0;0;0;0;61;84;84;75;84;84;77;83;83;79;84;84;82;84;84;
0;0;0;0;61;84;84;75;84;84;77;83;83;79;84;84;82;84;84;
0;0;0;0;61;84;84;75;84;84;77;83;83;79;84;84;82;84;84;
0;0;0;0;61;84;84;75;84;84;77;83;83;79;84;84;82;84;84;
0;0;0;0;61;84;84;75;84;84;77;83;83;79;84;84;82;84;84;
0;0;0;0;61;84;84;75;84;84;77;83;83;79;84;84;82;84;84;
0;0;0;0;61;84;84;75;84;84;77;83;83;79;84;84;82;84;84;
0;0;0;0;61;84;84;75;84;84;77;83;83;79;84;84;82;84;84;
0;0;0;0;61;84;84;75;84;84;77;83;83;79;84;84;82;84;84;
0;0;0;0;61;84;84;75;84;84;77;83;83;79;84;84;82;84;84;
0;0;0;0;61;84;84;75;84;84;77;83;83;79;84;84;82;84;84;
0;0;0;0;61;84;84;75;84;84;77;83;83;79;84;84;82;84;84;
0;0;0;0;61;84;84;75;84;84;77;83;83;79;84;84;82;84;84;
0;0;0;0;61;84;84;75;84;84;77;83;83;79;84;84;82;84;84;
0;0;0;0;61;84;84;75;84;84;77;83;83;79;84;84;82;84;84;
0;0;0;0;61;84;84;75;84;84;77;83;83;79;84;84;82;84;84;
0;0;0;0;61;84;84;75;84;84;77;83;83;79;84;84;82;84;84;
0;0;0;0;61;84;84;75;84;84;77;83;83;79;84;84;82;84;84;
0;0;0;0;61;84;84;75;84;84;77;83;83;79;84;84;82;84;84;
0;0;0;0;61;84;84;75;84;84;77;83;83;79;84;84;82;84;84;
0;0;0;0;61;84;84;75;84;84;77;83;83;79;84;84;82;84;84;
0;0;0;0;61;84;84;75;84;84;77;83;83;79;84;84;82;84;84;
0;0;0;0;61;84;84;75;84;84;77;83;83;79;84;84;82;84;84;
0;0;0;0;61;84;84;75;84;84;77;83;83;79;84;84;82;84;84;
0;0;0;0;61;84;84;75;84;84;77;83;83;79;84;84;82;84;84;
0;0;0;0;61;84;84;75;84;84;77;83;83;79;84;84;82;84;84;
0;0;0;0;61;84;84;75;84;84;77;83;83;79;84;84;82;84;84;
0;0;0;0;61;84;84;75;84;84;77;83;83;79;84;84;82;84;84;
0;0;0;0;61;84;84;75;84;84;77;83;83;79;84;84;82;84;84;
0;0;0;0;61;84;84;75;84;84;77;83;83;79;84;84;82;84;84;
0;0;0;0;61;84;84;75;84;84;77;83;83;79;84;84;82;84;84;
0;0;0;0;61;84;84;75;84;84;77;83;83;79;84;84;82;84;84;
0;0;0;0;61;84;84;75;84;84;77;83;83;79;84;84;82;84;84;
0;0;0;0;61;84;84;75;84;84;77;83;83;79;84;84;82;84;84;
0;0;0;0;61;84;84;75;84;84;77;83;83;79;84;84;82;84;84;
0;0;0;0;61;84;84;75;84;84;77;83;83;79;84;84;82;84;84;
0;0;0;0;61;84;84;75;84;84;77;83;83;79;84;84;82;84;84;
0;0;0;0;61;84;84;76;85;85;78;83;83;80;85;85;83;84;84;
0;0;0;0;61;84;84;76;85;85;78;83;83;80;85;85;83;84;84;
0;0;0;0;61;84;84;76;85;85;78;83;83;80;85;85;83;84;84;
0;0;0;0;61;84;84;76;85;85;78;83;83;80;85;85;83;84;84;
0;0;0;0;61;84;84;76;85;85;78;83;83;80;85;85;83;84;84;
0;0;0;0;61;84;84;76;85;85;78;83;83;80;85;85;83;84;84;
0;0;0;0;61;84;84;76;85;85;78;83;83;80;85;85;83;84;84;
0;0;0;0;61;84;84;76;85;85;78;83;83;80;85;85;83;84;84;
0;0;0;0;61;84;84;76;85;85;78;83;83;80;85;85;83;84;84;
0;0;0;0;61;84;84;76;85;85;78;83;83;81;85;85;83;84;84;
0;0;0;0;61;84;84;76;85;85;78;83;83;81;85;85;83;84;84;
0;0;0;0;61;84;84;76;85;85;78;83;83;81;85;85;83;84;84;
0;0;0;0;61;84;84;76;85;85;78;83;83;81;85;85;83;84;84;
0;0;0;0;61;84;84;76;85;85;78;83;83;81;85;85;83;84;84;
0;0;0;0;61;84;84;76;85;85;78;83;83;81;85;85;83;84;84;
0;0;0;0;61;84;84;76;85;85;78;83;83;81;85;85;83;84;84;
0;0;0;0;61;84;84;76;85;85;78;83;83;81;85;85;83;84;84;
0;0;0;0;61;84;84;76;85;85;78;83;83;81;85;85;83;84;84;
0;0;0;0;61;84;84;76;85;85;78;83;83;81;85;85;83;84;84;
0;0;0;0;61;84;84;76;85;85;78;83;83;81;85;85;83;84;84;
0;0;0;0;61;84;84;76;85;85;78;83;83;81;85;85;83;84;84;
0;0;0;0;61;84;84;76;85;85;78;83;83;81;85;85;83;84;84;
0;0;0;0;61;84;84;76;85;85;78;83;83;81;85;85;83;84;84;
0;0;0;0;61;84;84;76;85;85;78;83;83;81;85;85;83;84;84;
0;0;0;0;61;84;84;76;85;85;78;83;83;81;85;85;83;84;84;
0;0;0;0;61;84;84;76;85;85;78;83;83;81;85;85;83;84;84;
0;0;0;0;61;84;84;76;85;85;78;83;83;81;85;85;83;84;84;
0;0;0;0;61;84;84;76;85;85;78;83;83;81;85;85;83;84;84;
0;0;0;0;61;84;84;76;85;85;78;83;83;81;85;85;83;84;84;
0;0;0;0;61;84;84;76;85;85;78;83;83;81;85;85;83;84;84;
0;0;0;0;61;84;84;76;85;85;78;83;83;81;85;85;83;84;84;
0;0;0;0;61;84;84;76;85;85;78;83;83;81;85;85;83;84;84;
0;0;0;0;61;84;84;76;85;85;78;83;83;81;85;85;83;84;84;
0;0;0;0;61;84;84;76;85;85;78;83;83;81;85;85;83;84;84;
0;0;0;0;61;84;84;76;85;85;78;83;83;81;85;85;83;84;84;
0;0;0;0;61;84;84;76;85;85;78;83;83;81;85;85;83;84;84;
0;0;0;0;61;84;84;76;85;85;78;83;83;81;85;85;83;84;84;
0;0;0;0;61;84;84;76;85;85;78;83;83;81;85;85;83;84;84;
0;0;0;0;61;84;84;76;85;85;78;83;83;81;85;85;83;84;84;
0;0;0;0;61;84;84;76;85;85;78;83;83;81;85;85;83;84;84;
0;0;0;0;61;84;84;76;85;85;78;83;83;81;85;85;83;84;84;
0;0;0;0;61;84;84;76;85;85;78;83;83;81;85;85;83;84;84;
0;0;0;0;61;84;84;76;85;85;78;83;83;81;85;85;83;84;84;
0;0;0;0;61;84;84;76;85;85;78;83;83;81;85;85;83;84;84;
0;0;0;0;61;84;84;76;85;85;78;83;83;81;85;85;83;84;84;
0;0;0;0;61;84;84;76;85;85;78;83;83;81;85;85;83;84;84;
0;0;0;0;61;84;84;76;85;85;78;83;83;81;85;85;83;84;84;
0;0;0;0;61;84;84;76;85;85;78;83;83;81;85;85;83;84;84;
0;0;0;0;61;84;84;76;85;85;78;83;83;81;85;85;83;84;84;
0;0;0;0;61;84;84;76;85;85;78;83;83;81;85;85;83;84;84;
0;0;0;0;61;84;84;76;85;85;78;83;83;81;85;85;83;84;84;
0;0;0;0;61;84;84;76;85;85;78;83;83;81;85;85;83;84;84;
0;0;0;0;61;84;84;76;85;85;78;83;83;81;85;85;83;84;84;
0;0;0;0;61;84;84;76;85;85;78;83;83;81;85;85;83;84;84;
0;0;0;0;61;84;84;76;85;85;78;83;83;81;85;85;83;84;84;
0;0;0;0;61;84;84;76;85;85;78;83;83;81;85;85;83;84;84;
0;0;0;0;61;84;84;76;85;85;78;83;83;81;85;85;83;84;84;
0;0;0;0;61;84;84;76;85;85;78;83;83;81;85;85;83;84;84;
0;0;0;0;61;84;84;76;85;85;78;83;83;81;85;85;83;84;84;
0;0;0;0;61;84;84;76;85;85;78;83;83;81;85;85;83;84;84;
0;0;0;0;61;84;84;76;85;85;78;83;83;81;85;85;83;84;84;
0;0;0;0;61;84;84;76;85;85;78;83;83;81;85;85;83;84;84;
0;0;0;0;61;84;84;76;85;85;78;83;83;81;85;85;83;84;84;
0;0;0;0;61;84;84;76;85;85;78;83;83;81;85;85;83;84;84;
0;0;0;0;61;84;84;76;85;85;78;83;83;81;85;85;83;84;84;
0;0;0;0;61;84;84;76;85;85;78;83;83;81;85;85;83;84;84;
0;0;0;0;61;84;84;76;85;85;78;83;83;81;85;85;83;84;84;
0;0;0;0;61;84;84;76;85;85;78;83;83;81;85;85;83;84;84;
0;0;0;0;61;84;84;76;85;85;78;83;83;81;85;85;83;84;84;
0;0;0;0;61;84;84;76;85;85;78;83;83;81;85;85;83;84;84;
0;0;0;0;61;84;84;76;85;85;78;83;83;81;85;85;83;84;84;
0;0;0;0;61;84;84;76;85;85;78;83;83;81;85;85;83;84;84;
0;0;0;0;61;84;84;76;85;85;78;83;83;81;85;85;83;84;84;
0;0;0;0;61;84;84;76;85;85;78;83;83;81;85;85;83;84;84;
0;0;0;0;61;84;84;76;85;85;78;83;83;81;85;85;83;84;84;
0;0;0;0;61;84;84;76;85;85;78;83;83;81;85;85;83;84;84;
0;0;0;0;61;84;84;76;85;85;78;83;83;81;85;85;83;84;84;
0;0;0;0;61;84;84;76;85;85;78;83;83;81;85;85;83;84;84;
0;0;0;0;61;84;84;76;85;85;78;83;83;81;85;85;83;84;84;
0;0;0;0;61;84;84;76;85;85;78;83;83;81;85;85;83;84;84;
0;0;0;0;61;84;84;76;85;85;78;83;83;81;85;85;83;84;84;
0;0;0;0;61;84;84;76;85;85;78;83;83;81;85;85;83;84;84;
0;0;0;0;61;84;84;76;85;85;78;83;83;81;85;85;83;84;84;
0;0;0;0;61;84;84;76;85;85;78;83;83;81;85;85;83;84;84;
0;0;0;0;61;84;84;76;85;85;78;83;83;81;85;85;83;84;84;
0;0;0;0;61;84;84;76;85;85;78;83;83;81;85;85;83;84;84;
0;0;0;0;61;84;84;76;85;85;78;83;83;81;85;85;83;84;84;
0;0;0;0;61;84;84;76;85;85;78;83;83;81;85;85;83;84;84;
0;0;0;0;61;84;84;76;85;85;78;83;83;81;85;85;83;84;84;
0;0;0;0;61;84;84;76;85;85;78;83;83;81;85;85;83;84;84;
0;0;0;0;61;84;84;76;85;85;78;83;83;81;85;85;83;84;84;
0;0;0;0;61;84;84;76;85;85;78;83;83;81;85;85;83;84;84;
0;0;0;0;61;84;84;76;85;85;78;83;83;81;85;85;83;84;84;
0;0;0;0;61;84;84;76;85;85;78;83;83;81;85;85;83;84;84;
0;0;0;0;61;84;84;76;85;85;78;83;83;81;85;85;83;84;84;
0;0;0;0;61;84;84;76;85;85;78;83;83;81;85;85;83;84;84;
0;0;0;0;61;84;84;76;85;85;78;83;83;81;85;85;83;84;84;
0;0;0;0;61;84;84;76;85;85;78;83;83;81;85;85;83;84;84;
0;0;0;0;61;84;84;76;85;85;78;83;83;81;85;85;83;84;84;
0;0;0;0;61;84;84;76;85;85;78;83;83;81;85;85;83;84;84;
0;0;0;0;61;84;84;76;85;85;78;83;83;81;85;85;83;84;84;
0;0;0;0;61;84;84;76;85;85;78;83;83;81;85;85;83;84;84;
0;0;0;0;61;84;84;76;85;85;78;83;83;81;85;85;83;84;84;
0;0;0;0;62;84;84;76;85;85;78;84;84;81;85;85;83;85;85;
0;0;0;0;62;84;84;76;85;85;78;84;84;81;85;85;83;85;85;
0;0;0;0;62;84;84;76;85;85;78;84;84;81;85;85;83;85;85;
0;0;0;0;62;84;84;76;85;85;78;84;84;82;85;85;83;85;85;
0;0;0;0;62;84;84;76;85;85;78;84;84;82;85;85;83;85;85;
0;0;0;0;62;84;84;76;85;85;78;84;84;82;85;85;83;85;85;
0;0;0;0;62;84;84;76;85;85;78;83;83;82;85;85;84;85;85;
0;0;0;0;62;84;84;76;85;85;78;83;83;81;85;85;84;85;85;
0;0;0;0;62;84;84;76;85;85;78;84;84;81;85;85;84;85;85;
0;0;0;0;62;84;84;76;85;85;78;84;84;81;85;85;84;85;85;
0;0;0;0;62;84;84;76;85;85;79;84;84;81;85;85;84;85;85;
0;0;0;0;62;84;84;76;85;85;79;84;84;81;85;85;84;85;85;
0;0;0;0;62;84;84;76;85;85;79;84;84;81;85;85;84;85;85;
0;0;0;0;62;84;84;76;85;85;79;84;84;81;85;85;84;85;85;
0;0;0;0;62;84;84;76;85;85;79;84;84;81;85;85;84;85;85;
0;0;0;0;62;84;84;76;85;85;79;84;84;81;85;85;84;85;85;
0;0;0;0;62;84;84;76;85;85;79;84;84;81;85;85;84;85;85;
0;0;0;0;62;84;84;76;85;85;79;84;84;81;85;85;84;85;85;
0;0;0;0;62;84;84;76;85;85;79;84;84;81;85;85;84;85;85;
0;0;0;0;62;84;84;76;85;85;79;84;84;81;85;85;84;85;85;
0;0;0;0;62;84;84;76;85;85;79;84;84;81;85;85;84;85;85;
0;0;0;0;62;84;84;76;85;85;79;84;84;81;85;85;84;85;85;
0;0;0;0;62;84;84;76;85;85;79;84;84;81;85;85;84;85;85;
0;0;0;0;62;84;84;76;85;85;79;84;84;81;85;85;84;85;85;
0;0;0;0;62;84;84;76;85;85;79;84;84;81;85;85;84;85;85;
0;0;0;0;62;84;84;76;85;85;79;84;84;81;85;85;84;85;85;
0;0;0;0;62;84;84;76;85;85;79;84;84;81;85;85;84;85;85;
0;0;0;0;62;84;84;76;85;85;79;84;84;81;85;85;84;85;85;
0;0;0;0;62;84;84;76;85;85;79;84;84;81;85;85;84;85;85;
0;0;0;0;62;84;84;76;85;85;79;84;84;81;85;85;84;85;85;
0;0;0;0;62;84;84;76;85;85;79;84;84;81;85;85;84;85;85;
0;0;0;0;62;84;84;76;85;85;79;84;84;81;85;85;84;85;85;
0;0;0;0;62;84;84;76;85;85;79;84;84;81;85;85;84;85;85;
0;0;0;0;62;84;84;76;85;85;79;84;84;81;85;85;84;85;85;
0;0;0;0;62;84;84;76;85;85;79;84;84;81;85;85;84;85;85;
0;0;0;0;62;84;84;76;85;85;79;84;84;81;85;85;84;85;85;
0;0;0;0;62;84;84;76;85;85;79;84;84;81;85;85;84;85;85;
0;0;0;0;62;84;84;76;85;85;79;84;84;81;85;85;84;85;85;
0;0;0;0;62;84;84;76;85;85;79;84;84;81;85;85;84;85;85;
0;0;0;0;62;84;84;76;85;85;79;84;84;81;85;85;84;85;85;
0;0;0;0;62;84;84;76;85;85;79;84;84;81;85;85;84;85;85;
0;0;0;0;62;84;84;76;85;85;79;84;84;81;85;85;84;85;85;
0;0;0;0;62;84;84;76;85;85;79;84;84;81;85;85;84;85;85;
0;0;0;0;62;84;84;76;85;85;79;84;84;81;85;85;84;85;85;
0;0;0;0;62;84;84;76;85;85;79;84;84;81;85;85;84;85;85;
0;0;0;0;62;84;84;76;85;85;79;84;84;81;85;85;84;85;85;
0;0;0;0;62;84;84;76;85;85;79;84;84;81;85;85;84;85;85;
0;0;0;0;62;84;84;76;85;85;79;84;84;81;85;85;84;85;85;
0;0;0;0;62;84;84;76;85;85;79;84;84;81;85;85;84;85;85;
0;0;0;0;62;84;84;76;85;85;79;84;84;81;85;85;84;85;85;
0;0;0;0;62;84;84;76;85;85;79;84;84;81;85;85;84;85;85;
0;0;0;0;62;84;84;76;85;85;79;84;84;81;85;85;84;85;85;
0;0;0;0;62;84;84;76;85;85;79;84;84;81;85;85;84;85;85;
0;0;0;0;62;84;84;76;85;85;79;84;84;81;85;85;84;85;85;
0;0;0;0;62;84;84;76;85;85;79;84;84;81;85;85;84;85;85;
0;0;0;0;62;84;84;76;85;85;79;84;84;81;85;85;84;85;85;
0;0;0;0;62;84;84;76;85;85;79;84;84;81;85;85;84;85;85;
0;0;0;0;62;84;84;76;85;85;79;84;84;81;85;85;84;85;85;
0;0;0;0;62;84;84;76;85;85;79;84;84;81;85;85;84;85;85;
0;0;0;0;62;84;84;76;85;85;79;84;84;81;85;85;84;85;85;
0;0;0;0;62;84;84;76;85;85;79;84;84;81;85;85;84;85;85;
0;0;0;0;62;84;84;76;85;85;79;84;84;81;85;85;84;85;85;
0;0;0;0;62;84;84;76;85;85;79;84;84;81;85;85;84;85;85;
0;0;0;0;62;84;84;76;85;85;79;84;84;81;85;85;84;85;85;
0;0;0;0;62;84;84;76;85;85;79;84;84;81;85;85;84;85;85;
0;0;0;0;62;84;84;76;85;85;79;84;84;81;85;85;84;85;85;
0;0;0;0;62;84;84;76;85;85;79;84;84;81;85;85;84;85;85;
0;0;0;0;62;84;84;76;85;85;79;84;84;81;85;85;84;85;85;
0;0;0;0;62;84;84;76;85;85;79;84;84;81;85;85;84;85;85;
0;0;0;0;62;84;84;76;85;85;79;84;84;81;85;85;84;85;85;
0;0;0;0;62;84;84;76;85;85;79;84;84;81;85;85;84;85;85;
0;0;0;0;62;84;84;76;85;85;79;84;84;81;85;85;84;85;85;
0;0;0;0;62;84;84;76;85;85;79;84;84;81;85;85;84;85;85;
0;0;0;0;62;84;84;76;85;85;79;84;84;81;85;85;84;85;85;
0;0;0;0;62;84;84;76;85;85;79;84;84;81;85;85;84;85;85;
0;0;0;0;62;84;84;76;85;85;79;84;84;81;85;85;84;85;85;
0;0;0;0;62;84;84;76;85;85;79;84;84;81;85;85;84;85;85;
0;0;0;0;62;84;84;76;85;85;79;84;84;81;85;85;84;85;85;
0;0;0;0;62;84;84;76;85;85;79;84;84;81;85;85;84;85;85;
0;0;0;0;62;84;84;76;85;85;79;84;84;81;85;85;84;85;85;
0;0;0;0;62;84;84;76;85;85;79;84;84;81;85;85;84;85;85;
0;0;0;0;62;84;84;76;85;85;79;84;84;81;85;85;84;85;85;
0;0;0;0;62;84;84;76;85;85;79;84;84;81;85;85;84;85;85;
0;0;0;0;62;84;84;76;85;85;79;84;84;81;85;85;84;85;85;
0;0;0;0;62;84;84;76;85;85;79;84;84;81;85;85;84;85;85;
0;0;0;0;62;84;84;76;85;85;79;84;84;81;85;85;84;85;85;
0;0;0;0;62;84;84;77;85;85;78;83;83;81;85;85;84;85;85;
0;0;0;0;62;84;84;77;85;85;78;83;83;81;85;85;84;85;85;
0;0;0;0;62;84;84;77;85;85;78;83;83;81;85;85;84;85;85;
0;0;0;0;62;84;84;77;85;85;78;83;83;81;85;85;84;85;85;
0;0;0;0;62;84;84;77;85;85;78;83;83;81;85;85;84;85;85;
0;0;0;0;62;84;84;77;85;85;78;83;83;81;85;85;84;85;85;
0;0;0;0;62;84;84;77;85;85;78;83;83;81;85;85;84;85;85;
0;0;0;0;62;84;84;77;85;85;78;83;83;81;85;85;84;85;85;
0;0;0;0;62;84;84;77;85;85;78;83;83;81;85;85;84;85;85;
0;0;0;0;62;84;84;77;85;85;78;83;83;81;85;85;84;85;85;
0;0;0;0;62;84;84;77;85;85;78;83;83;81;85;85;84;85;85;
0;0;0;0;62;84;84;77;85;85;78;83;83;81;85;85;84;85;85;
0;0;0;0;62;84;84;77;85;85;78;83;83;81;85;85;84;85;85;
0;0;0;0;62;84;84;77;85;85;78;83;83;81;85;85;84;85;85;
0;0;0;0;62;84;84;77;85;85;78;83;83;81;85;85;84;85;85;
0;0;0;0;62;84;84;77;85;85;78;83;83;81;85;85;84;85;85;
0;0;0;0;62;84;84;77;85;85;78;83;83;81;85;85;84;85;85;
0;0;0;0;62;84;84;77;85;85;78;83;83;81;85;85;84;85;85;
0;0;0;0;62;84;84;77;85;85;78;83;83;81;85;85;84;85;85;
0;0;0;0;62;84;84;77;85;85;78;83;83;81;85;85;84;85;85;
0;0;0;0;62;84;84;77;85;85;78;83;83;81;85;85;84;85;85;
0;0;0;0;62;84;84;77;85;85;78;83;83;81;85;85;84;85;85;
0;0;0;0;62;84;84;77;85;85;78;83;83;81;85;85;84;85;85;
0;0;0;0;62;84;84;77;85;85;78;83;83;81;85;85;84;85;85;
0;0;0;0;62;84;84;77;85;85;78;83;83;81;85;85;84;85;85;
0;0;0;0;62;84;84;77;85;85;78;83;83;81;85;85;84;85;85;
0;0;0;0;62;84;84;77;85;85;78;83;83;81;85;85;84;85;85;
0;0;0;0;62;84;84;77;85;85;78;83;83;81;85;85;84;85;85;
0;0;0;0;62;84;84;77;85;85;78;83;83;81;85;85;84;85;85;
0;0;0;0;62;84;84;77;85;85;78;83;83;81;85;85;84;85;85;
0;0;0;0;62;84;84;77;85;85;78;83;83;81;85;85;84;85;85;
0;0;0;0;62;84;84;77;85;85;78;83;83;81;85;85;84;85;85;
0;0;0;0;62;84;84;77;85;85;78;83;83;81;85;85;84;85;85;
0;0;0;0;62;84;84;77;85;85;78;83;83;81;85;85;84;85;85;
0;0;0;0;62;84;84;77;85;85;78;83;83;81;85;85;84;85;85;
0;0;0;0;62;84;84;77;85;85;78;83;83;81;85;85;84;85;85;
0;0;0;0;62;84;84;77;85;85;78;83;83;81;85;85;84;85;85;
0;0;0;0;62;84;84;77;85;85;78;83;83;81;85;85;84;85;85;
0;0;0;0;62;84;84;77;85;85;78;83;83;81;85;85;84;85;85;
0;0;0;0;62;84;84;77;85;85;78;83;83;81;85;85;84;85;85;
0;0;0;0;62;84;84;77;85;85;78;83;83;81;85;85;84;85;85;
0;0;0;0;62;84;84;77;85;85;78;83;83;81;85;85;84;85;85;
0;0;0;0;62;84;84;77;85;85;78;83;83;81;85;85;84;85;85;
0;0;0;0;62;84;84;77;85;85;78;83;83;81;85;85;84;85;85;
0;0;0;0;62;84;84;77;85;85;78;83;83;81;85;85;84;85;85;
0;0;0;0;62;84;84;77;85;85;78;83;83;81;85;85;84;85;85;
0;0;0;0;62;84;84;77;85;85;78;83;83;81;85;85;84;85;85;
0;0;0;0;62;84;84;77;85;85;78;83;83;81;85;85;84;85;85;
0;0;0;0;62;84;84;77;85;85;78;83;83;81;85;85;84;85;85;
0;0;0;0;62;84;84;77;85;85;78;83;83;81;85;85;84;85;85;
0;0;0;0;62;84;84;77;85;85;78;83;83;81;85;85;84;85;85;
0;0;0;0;62;84;84;77;85;85;78;83;83;81;85;85;84;85;85;
0;0;0;0;62;84;84;77;85;85;78;83;83;81;85;85;84;85;85;
0;0;0;0;62;84;84;77;85;85;78;83;83;81;85;85;84;85;85;
0;0;0;0;62;84;84;77;85;85;78;83;83;81;85;85;84;85;85;
0;0;0;0;62;84;84;77;85;85;78;83;83;81;85;85;84;85;85;
0;0;0;0;62;84;84;77;85;85;78;83;83;81;85;85;84;85;85;
0;0;0;0;62;84;84;77;85;85;78;83;83;81;85;85;84;85;85;
0;0;0;0;62;84;84;77;85;85;78;83;83;81;85;85;84;85;85;
0;0;0;0;62;84;84;77;85;85;78;83;83;81;85;85;84;85;85;
0;0;0;0;62;84;84;77;85;85;78;83;83;81;85;85;84;85;85;
0;0;0;0;62;84;84;77;85;85;78;83;83;81;85;85;84;85;85;
0;0;0;0;62;84;84;77;85;85;78;83;83;81;85;85;84;85;85;
0;0;0;0;62;84;84;77;85;85;78;83;83;81;85;85;84;85;85;
0;0;0;0;62;84;84;77;85;85;78;83;83;81;85;85;84;85;85;
0;0;0;0;62;84;84;77;85;85;78;83;83;81;85;85;84;85;85;
0;0;0;0;62;84;84;77;85;85;78;83;83;81;85;85;84;85;85;
0;0;0;0;62;84;84;77;85;85;78;83;83;81;85;85;84;85;85;
0;0;0;0;62;84;84;77;85;85;78;83;83;81;85;85;84;85;85;
0;0;0;0;62;84;84;77;85;85;78;83;83;81;85;85;84;85;85;
0;0;0;0;62;84;84;77;85;85;78;83;83;81;85;85;84;85;85;
0;0;0;0;62;84;84;77;85;85;78;83;83;81;85;85;84;85;85;
0;0;0;0;62;84;84;77;85;85;78;83;83;81;85;85;84;85;85;
0;0;0;0;62;84;84;77;85;85;78;83;83;81;85;85;84;85;85;
0;0;0;0;62;84;84;77;85;85;78;83;83;81;85;85;84;85;85;
0;0;0;0;62;84;84;77;85;85;78;83;83;81;85;85;84;85;85;
0;0;0;0;62;84;84;77;85;85;78;83;83;81;85;85;84;85;85;
0;0;0;0;62;84;84;77;85;85;78;83;83;81;85;85;84;85;85;
0;0;0;0;62;84;84;77;85;85;78;83;83;81;85;85;84;85;85;
0;0;0;0;62;84;84;77;85;85;78;83;83;81;85;85;84;85;85;
0;0;0;0;62;84;84;77;85;85;78;83;83;81;85;85;84;85;85;
0;0;0;0;62;84;84;77;85;85;78;83;83;81;85;85;84;85;85;
0;0;0;0;62;84;84;77;85;85;78;83;83;81;85;85;84;85;85;
0;0;0;0;62;84;84;77;85;85;78;83;83;81;85;85;84;85;85;
0;0;0;0;62;84;84;77;85;85;78;83;83;81;85;85;84;85;85;
0;0;0;0;62;84;84;77;85;85;78;83;83;81;85;85;84;85;85;
0;0;0;0;62;84;84;77;85;85;78;83;83;81;85;85;84;85;85;
0;0;0;0;62;84;84;77;85;85;78;83;83;81;85;85;84;85;85;
0;0;0;0;62;84;84;77;85;85;78;83;83;81;85;85;84;85;85;
0;0;0;0;62;84;84;77;85;85;78;83;83;81;85;85;84;85;85;
0;0;0;0;62;84;84;77;85;85;78;83;83;81;85;85;84;85;85;
0;0;0;0;62;84;84;77;85;85;78;83;83;81;85;85;84;85;85;
0;0;0;0;62;84;84;77;85;85;78;83;83;81;85;85;84;85;85;
0;0;0;0;62;84;84;77;85;85;78;83;83;81;85;85;84;85;85;
0;0;0;0;62;84;84;77;85;85;78;83;83;81;85;85;84;85;85;
0;0;0;0;62;84;84;77;85;85;78;83;83;81;85;85;84;85;85;
0;0;0;0;62;84;84;77;85;85;78;83;83;81;85;85;84;85;85;
0;0;0;0;62;84;84;77;85;85;78;83;83;81;85;85;84;85;85;
0;0;0;0;62;84;84;77;85;85;78;83;83;81;85;85;84;85;85;
0;0;0;0;62;84;84;77;85;85;78;83;83;81;85;85;84;85;85;
0;0;0;0;62;84;84;77;85;85;78;83;83;81;85;85;84;85;85;
0;0;0;0;62;84;84;77;85;85;78;83;83;81;85;85;84;85;85;
0;0;0;0;62;84;84;77;85;85;78;83;83;81;85;85;84;85;85;
0;0;0;0;62;84;84;77;85;85;78;83;83;81;85;85;84;85;85;
0;0;0;0;62;84;84;77;85;85;78;83;83;81;85;85;84;85;85;
0;0;0;0;62;84;84;77;85;85;78;83;83;81;85;85;84;85;85;
0;0;0;0;62;84;84;77;85;85;78;83;83;81;85;85;84;85;85;
0;0;0;0;62;84;84;77;85;85;78;83;83;81;85;85;84;85;85;
0;0;0;0;62;84;84;77;85;85;78;83;83;81;85;85;84;85;85;
0;0;0;0;62;84;84;77;85;85;78;83;83;81;85;85;84;85;85;
0;0;0;0;62;84;84;77;85;85;78;83;83;81;85;85;84;85;85;
0;0;0;0;62;84;84;77;85;85;78;83;83;81;85;85;84;85;85;
0;0;0;0;62;84;84;77;85;85;78;83;83;81;85;85;84;85;85;
0;0;0;0;62;84;84;77;85;85;78;83;83;81;85;85;84;85;85;
0;0;0;0;62;84;84;77;85;85;78;83;83;81;85;85;84;85;85;
0;0;0;0;62;84;84;77;85;85;78;83;83;81;85;85;84;85;85;
0;0;0;0;62;84;84;77;85;85;78;83;83;81;85;85;84;85;85;
0;0;0;0;62;84;84;77;85;85;78;83;83;81;85;85;84;85;85;
0;0;0;0;62;84;84;77;85;85;78;83;83;81;85;85;84;85;85;
0;0;0;0;62;84;84;77;85;85;78;83;83;81;85;85;84;85;85;
0;0;0;0;62;84;84;77;85;85;78;83;83;81;85;85;84;85;85;
0;0;0;0;62;84;84;77;85;85;78;83;83;81;85;85;84;85;85;
0;0;0;0;62;84;84;77;85;85;78;83;83;81;85;85;84;85;85;
0;0;0;0;62;84;84;77;85;85;78;83;83;81;85;85;84;85;85;
0;0;0;0;62;84;84;77;85;85;78;83;83;81;85;85;84;85;85;
0;0;0;0;62;84;84;77;85;85;78;83;83;81;85;85;84;85;85;
0;0;0;0;62;84;84;77;85;85;78;83;83;81;85;85;84;85;85;
0;0;0;0;62;84;84;77;85;85;78;83;83;81;85;85;84;85;85;
0;0;0;0;62;84;84;77;85;85;78;83;83;81;85;85;84;85;85;
0;0;0;0;62;84;84;77;85;85;78;83;83;81;85;85;84;85;85;
0;0;0;0;62;84;84;77;85;85;78;83;83;81;85;85;84;85;85;
0;0;0;0;62;84;84;77;85;85;78;83;83;81;85;85;84;85;85;
0;0;0;0;62;84;84;77;85;85;78;83;83;81;85;85;84;85;85;
0;0;0;0;62;84;84;77;85;85;78;83;83;81;85;85;84;85;85;
0;0;0;0;62;84;84;77;85;85;78;83;83;81;85;85;84;85;85;
0;0;0;0;62;84;84;77;85;85;78;83;83;81;85;85;84;85;85;
0;0;0;0;62;84;84;77;85;85;78;83;83;81;85;85;84;85;85;
0;0;0;0;62;84;84;77;85;85;78;83;83;81;85;85;84;85;85;
0;0;0;0;62;84;84;77;85;85;78;83;83;81;85;85;84;85;85;
0;0;0;0;62;84;84;77;85;85;78;83;83;81;85;85;84;85;85;
0;0;0;0;62;84;84;77;85;85;78;83;83;81;85;85;84;85;85;
0;0;0;0;62;84;84;77;85;85;78;83;83;81;85;85;84;85;85;
0;0;0;0;62;84;84;77;85;85;78;83;83;81;85;85;84;85;85;
0;0;0;0;62;84;84;77;85;85;78;83;83;81;85;85;84;85;85;
0;0;0;0;62;84;84;77;85;85;78;83;83;81;85;85;84;85;85;
0;0;0;0;62;84;84;77;85;85;78;83;83;81;85;85;84;85;85;
0;0;0;0;62;84;84;77;85;85;78;83;83;81;85;85;84;85;85;
0;0;0;0;62;84;84;77;85;85;78;83;83;81;85;85;84;85;85;
0;0;0;0;62;84;84;77;85;85;78;83;83;81;85;85;84;85;85;
0;0;0;0;62;84;84;77;85;85;78;83;83;81;85;85;84;85;85;
0;0;0;0;62;84;84;77;85;85;78;83;83;81;85;85;84;85;85;
0;0;0;0;62;84;84;77;85;85;78;83;83;81;85;85;84;85;85;
0;0;0;0;62;84;84;77;85;85;78;83;83;81;85;85;84;85;85;
0;0;0;0;62;84;84;77;85;85;78;83;83;81;85;85;84;85;85;
0;0;0;0;62;84;84;77;85;85;78;83;83;81;85;85;84;85;85;
0;0;0;0;62;84;84;77;85;85;78;83;83;81;85;85;84;85;85;
0;0;0;0;62;84;84;77;85;85;78;83;83;81;85;85;84;85;85;
0;0;0;0;62;84;84;77;85;85;78;83;83;81;85;85;84;85;85;
0;0;0;0;62;84;84;77;85;85;78;83;83;81;85;85;84;85;85;
0;0;0;0;62;84;84;77;85;85;78;83;83;81;85;85;84;85;85;
0;0;0;0;62;84;84;77;85;85;78;83;83;81;85;85;84;85;85;
0;0;0;0;62;84;84;77;85;85;78;83;83;81;85;85;84;85;85;
0;0;0;0;62;84;84;77;85;85;78;83;83;81;85;85;84;85;85;
0;0;0;0;62;84;84;77;85;85;78;83;83;81;85;85;84;85;85;
0;0;0;0;62;84;84;77;85;85;78;83;83;81;85;85;84;85;85;
0;0;0;0;62;84;84;77;85;85;78;83;83;81;85;85;84;85;85;
0;0;0;0;62;84;84;77;85;85;78;83;83;81;85;85;84;85;85;
0;0;0;0;62;84;84;77;85;85;78;83;83;81;85;85;84;85;85;
0;0;0;0;62;84;84;77;85;85;78;83;83;81;85;85;84;85;85;
0;0;0;0;62;84;84;77;85;85;78;83;83;81;85;85;84;85;85;
0;0;0;0;62;84;84;77;85;85;78;83;83;81;85;85;84;85;85;
0;0;0;0;62;84;84;77;85;85;78;83;83;81;85;85;84;85;85;
0;0;0;0;62;84;84;77;85;85;78;83;83;81;85;85;84;85;85;
0;0;0;0;62;84;84;77;85;85;78;83;83;81;85;85;84;85;85;
0;0;0;0;62;84;84;77;85;85;78;83;83;81;85;85;84;85;85;
0;0;0;0;62;84;84;77;85;85;78;83;83;81;85;85;84;85;85;
0;0;0;0;62;84;84;77;85;85;78;83;83;81;85;85;84;85;85;
0;0;0;0;62;84;84;77;85;85;78;83;83;81;85;85;84;85;85;
0;0;0;0;62;84;84;77;85;85;78;83;83;81;85;85;84;85;85;
0;0;0;0;62;84;84;77;85;85;78;83;83;81;85;85;84;85;85;
0;0;0;0;62;84;84;77;85;85;78;83;83;81;85;85;84;85;85;
0;0;0;0;62;84;84;77;85;85;78;83;83;81;85;85;84;85;85;
0;0;0;0;62;84;84;77;85;85;78;83;83;81;85;85;84;85;85;
0;0;0;0;62;84;84;77;85;85;78;83;83;81;85;85;84;85;85;
0;0;0;0;62;84;84;77;85;85;78;83;83;81;85;85;84;85;85;
0;0;0;0;62;84;84;77;85;85;78;83;83;81;85;85;84;85;85;
0;0;0;0;62;84;84;77;85;85;78;83;83;81;85;85;84;85;85;
0;0;0;0;62;84;84;77;85;85;78;83;83;81;85;85;84;85;85;
0;0;0;0;62;84;84;77;85;85;78;83;83;81;85;85;84;85;85;
0;0;0;0;62;84;84;77;85;85;78;83;83;81;85;85;84;85;85;
0;0;0;0;62;84;84;77;85;85;78;83;83;81;85;85;84;85;85;
0;0;0;0;62;84;84;77;85;85;78;83;83;81;85;85;84;85;85;
0;0;0;0;62;84;84;77;85;85;78;83;83;81;85;85;84;85;85;
0;0;0;0;62;84;84;77;85;85;78;83;83;81;85;85;84;85;85;
0;0;0;0;62;84;84;77;85;85;78;83;83;81;85;85;84;85;85;
0;0;2;2;62;84;84;77;85;85;78;83;83;81;85;85;84;85;85;
0;0;0;0;62;84;84;77;85;85;78;83;83;81;85;85;84;85;85;
0;0;0;0;62;84;84;77;85;85;78;83;83;81;85;85;84;85;85;
0;0;0;0;62;84;84;77;85;85;78;83;83;81;85;85;84;85;85;
0;0;0;0;62;84;84;77;85;85;78;83;83;81;85;85;84;85;85;
0;0;0;0;62;84;84;77;85;85;78;83;83;81;85;85;84;85;85;
0;0;0;0;62;84;84;77;85;85;78;83;83;81;85;85;84;85;85;
0;0;0;0;62;84;84;77;85;85;78;83;83;81;85;85;84;85;85;
0;0;0;0;62;84;84;77;85;85;78;83;83;81;85;85;84;85;85;
0;0;0;0;62;84;84;77;85;85;78;83;83;81;85;85;84;85;85;
0;0;0;0;62;84;84;77;85;85;78;83;83;81;85;85;84;85;85;
0;0;0;0;62;84;84;77;85;85;78;83;83;81;85;85;84;85;85;
0;0;0;0;62;84;84;77;85;85;78;83;83;81;85;85;84;85;85;
0;0;0;0;62;84;84;77;85;85;78;83;83;81;85;85;84;85;85;
0;0;0;0;62;84;84;77;85;85;78;83;83;81;85;85;84;85;85;
0;0;0;0;62;84;84;77;85;85;78;83;83;81;85;85;84;85;85;
0;0;0;0;62;84;84;77;85;85;78;83;83;81;85;85;84;85;85;
0;0;0;0;62;84;84;77;85;85;78;83;83;81;85;85;84;85;85;
0;0;0;0;62;84;84;77;85;85;78;83;83;81;85;85;84;85;85;
0;0;0;0;62;84;84;77;85;85;78;83;83;81;85;85;84;85;85;
0;0;0;0;62;84;84;77;85;85;78;83;83;81;85;85;84;85;85;
0;0;0;0;62;84;84;77;85;85;78;83;83;81;85;85;84;85;85;
0;0;0;0;62;84;84;77;85;85;78;83;83;81;85;85;84;85;85;
0;0;0;0;63;84;84;76;84;84;78;83;83;81;85;85;83;84;84;
0;0;0;0;63;84;84;76;84;84;78;83;83;81;85;85;83;84;84;
0;0;0;0;63;84;84;76;84;84;78;83;83;81;85;85;83;84;84;
0;0;0;0;63;84;84;76;84;84;78;83;83;81;85;85;83;84;84;
0;0;0;0;63;84;84;76;84;84;78;83;83;81;85;85;83;84;84;
0;0;0;0;63;84;84;76;84;84;78;83;83;81;85;85;83;84;84;
0;0;0;0;63;84;84;76;84;84;78;83;83;81;85;85;83;84;84;
0;0;0;0;63;84;84;76;84;84;78;83;83;81;85;85;83;84;84;
0;0;0;0;63;84;84;76;84;84;78;83;83;81;85;85;83;84;84;
0;0;0;0;63;84;84;76;84;84;78;83;83;81;85;85;83;84;84;
0;0;0;0;63;84;84;76;84;84;78;83;83;81;85;85;83;84;84;
0;0;0;0;63;84;84;76;84;84;78;83;83;81;85;85;83;84;84;
0;0;0;0;63;84;84;76;84;84;78;83;83;81;85;85;83;84;84;
0;0;0;0;63;84;84;76;84;84;78;83;83;81;85;85;83;84;84;
0;0;0;0;63;84;84;76;84;84;78;83;83;81;85;85;83;84;84;
0;0;0;0;63;84;84;76;84;84;78;83;83;81;85;85;83;84;84;
0;0;0;0;63;84;84;76;84;84;78;83;83;81;85;85;83;84;84;
0;0;0;0;63;84;84;76;84;84;78;83;83;81;85;85;83;84;84;
0;0;0;0;63;84;84;76;84;84;78;83;83;81;85;85;83;84;84;
0;0;0;0;63;84;84;76;84;84;78;83;83;81;85;85;83;84;84;
0;0;0;0;63;84;84;76;84;84;78;83;83;81;85;85;83;84;84;
0;0;0;0;63;84;84;76;84;84;78;83;83;81;85;85;83;84;84;
0;0;0;0;63;84;84;76;84;84;78;83;83;81;85;85;83;84;84;
0;0;0;0;63;84;84;76;84;84;78;83;83;81;85;85;83;84;84;
0;0;0;0;63;84;84;76;84;84;78;83;83;81;85;85;83;84;84;
0;0;0;0;63;84;84;76;84;84;78;83;83;81;85;85;83;84;84;
0;0;0;0;63;84;84;76;84;84;78;83;83;81;85;85;83;84;84;
0;0;0;0;63;84;84;76;84;84;78;83;83;81;85;85;83;84;84;
0;0;0;0;63;84;84;76;84;84;78;83;83;81;85;85;83;84;84;
0;0;0;0;63;84;84;76;84;84;78;83;83;81;85;85;83;84;84;
0;0;0;0;63;84;84;76;84;84;78;83;83;81;85;85;83;84;84;
0;0;0;0;63;84;84;76;84;84;78;83;83;81;85;85;83;84;84;
0;0;0;0;63;84;84;76;84;84;78;83;83;81;85;85;83;84;84;
0;0;0;0;63;84;84;76;84;84;78;83;83;81;85;85;83;84;84;
0;0;0;0;63;84;84;76;84;84;78;83;83;81;85;85;83;84;84;
0;0;0;0;63;84;84;76;84;84;78;83;83;81;85;85;83;84;84;
0;0;0;0;63;84;84;76;84;84;78;83;83;81;85;85;83;84;84;
0;0;0;0;63;84;84;76;84;84;78;83;83;81;85;85;83;84;84;
0;0;0;0;63;84;84;76;84;84;78;83;83;81;85;85;83;84;84;
0;0;0;0;63;84;84;76;84;84;78;83;83;81;85;85;83;84;84;
0;0;0;0;63;84;84;76;84;84;78;83;83;81;85;85;83;84;84;
0;0;0;0;63;84;84;76;84;84;78;83;83;81;85;85;83;84;84;
0;0;0;0;63;84;84;76;84;84;78;83;83;81;85;85;83;84;84;
0;0;0;0;63;84;84;76;84;84;78;83;83;81;85;85;83;84;84;
0;0;0;0;63;84;84;76;84;84;78;83;83;81;85;85;83;84;84;
0;0;0;0;63;84;84;76;84;84;78;83;83;81;85;85;83;84;84;
0;0;0;0;63;84;84;76;84;84;78;83;83;81;85;85;83;84;84;
0;0;0;0;63;84;84;76;84;84;78;83;83;81;85;85;83;84;84;
0;0;0;0;63;84;84;76;84;84;78;83;83;81;85;85;83;84;84;
0;0;0;0;63;84;84;76;84;84;78;83;83;81;85;85;83;84;84;
0;0;0;0;63;84;84;76;84;84;78;83;83;81;84;84;83;84;84;
0;0;0;0;63;84;84;76;84;84;78;83;83;81;84;84;83;84;84;
0;0;0;0;63;84;84;76;84;84;78;83;83;81;84;84;83;84;84;
0;0;0;0;63;84;84;76;84;84;78;83;83;81;84;84;83;84;84;
0;0;0;0;63;84;84;76;84;84;78;83;83;81;84;84;83;84;84;
0;0;0;0;63;84;84;76;84;84;78;83;83;81;84;84;83;84;84;
0;0;0;0;63;84;84;76;84;84;78;83;83;81;84;84;83;84;84;
0;0;0;0;63;84;84;76;84;84;78;83;83;81;84;84;83;84;84;
0;0;0;0;64;84;84;76;84;84;78;83;83;80;84;84;83;84;84;
0;0;0;0;64;84;84;76;84;84;78;83;83;80;84;84;83;84;84;
0;0;0;0;64;84;84;76;84;84;78;83;83;80;84;84;83;84;84;
0;0;0;0;64;84;84;76;84;84;78;83;83;80;84;84;83;84;84;
0;0;0;0;64;84;84;76;84;84;78;83;83;80;84;84;83;84;84;
0;0;0;0;64;84;84;76;84;84;78;83;83;80;84;84;83;84;84;
0;0;0;0;64;84;84;76;84;84;78;83;83;80;84;84;83;84;84;
0;0;0;0;64;84;84;76;84;84;78;83;83;80;84;84;83;84;84;
0;0;0;0;64;84;84;76;84;84;78;83;83;80;84;84;83;84;84;
0;0;0;0;64;84;84;76;84;84;78;83;83;80;84;84;83;84;84;
0;0;0;0;64;84;84;76;84;84;78;83;83;80;84;84;83;84;84;
0;0;0;0;64;84;84;76;84;84;78;83;83;80;84;84;83;84;84;
0;0;0;0;64;84;84;76;84;84;78;83;83;80;84;84;83;84;84;
0;0;0;0;64;84;84;76;84;84;78;83;83;80;84;84;83;84;84;
0;0;0;0;64;84;84;76;84;84;78;83;83;80;84;84;83;84;84;
0;0;0;0;64;84;84;76;84;84;78;83;83;80;84;84;83;84;84;
0;0;0;0;64;84;84;76;84;84;78;83;83;80;84;84;83;84;84;
0;0;0;0;64;84;84;76;84;84;78;83;83;80;84;84;83;84;84;
0;0;0;0;64;84;84;76;84;84;78;83;83;80;84;84;83;84;84;
0;0;0;0;64;84;84;76;84;84;78;83;83;80;84;84;83;84;84;
0;0;0;0;64;84;84;76;84;84;78;83;83;80;84;84;83;83;83;
0;0;0;0;64;84;84;76;84;84;78;83;83;80;84;84;83;83;83;
0;0;0;0;64;84;84;76;84;84;78;83;83;80;84;84;83;83;83;
0;0;0;0;64;84;84;77;84;84;78;83;83;80;84;84;83;83;83;
0;0;0;0;64;84;84;77;84;84;78;83;83;80;84;84;83;83;83;
0;0;0;0;64;84;84;77;84;84;78;83;83;80;84;84;83;83;83;
0;0;0;0;64;84;84;77;84;84;78;83;83;80;84;84;83;83;83;
0;0;0;0;64;84;84;77;84;84;78;83;83;80;84;84;83;83;83;
0;0;0;0;64;84;84;77;84;84;78;83;83;80;84;84;83;83;83;
0;0;0;0;64;84;84;77;84;84;78;83;83;80;84;84;83;83;83;
0;0;0;0;64;84;84;77;84;84;78;83;83;80;84;84;83;83;83;
0;0;0;0;65;84;84;76;84;84;78;83;83;80;84;84;83;83;83;
0;0;0;0;65;84;84;76;84;84;78;83;83;80;84;84;83;83;83;
0;0;0;0;65;84;84;76;84;84;78;83;83;80;84;84;83;83;83;
0;0;0;0;65;84;84;76;84;84;78;83;83;80;84;84;83;83;83;
0;0;0;0;65;84;84;76;84;84;78;83;83;80;84;84;83;83;83;
0;0;0;0;65;84;84;76;84;84;78;83;83;80;84;84;83;83;83;
0;0;0;0;65;84;84;76;84;84;78;83;83;80;84;84;83;83;83;
0;0;0;0;65;84;84;76;84;84;78;83;83;80;84;84;83;83;83;
0;0;0;0;65;84;84;76;84;84;78;83;83;80;84;84;83;83;83;
0;0;0;0;65;84;84;76;84;84;78;83;83;80;84;84;83;83;83;
0;0;0;0;65;84;84;76;84;84;78;83;83;80;84;84;83;83;83;
0;0;0;0;65;84;84;76;84;84;78;83;83;80;84;84;83;83;83;
0;0;0;0;65;84;84;76;84;84;78;83;83;80;84;84;83;83;83;
0;0;0;0;65;84;84;76;84;84;78;83;83;80;84;84;83;83;83;
0;0;0;0;65;84;84;76;84;84;78;83;83;80;84;84;83;83;83;
0;0;0;0;65;84;84;76;84;84;78;83;83;80;84;84;83;83;83;
0;0;0;0;65;84;84;76;84;84;78;83;83;80;84;84;83;83;83;
0;0;0;0;65;84;84;76;84;84;78;83;83;80;84;84;83;83;83;
0;0;0;0;65;84;84;76;84;84;78;83;83;80;84;84;83;83;83;
0;0;0;0;65;84;84;76;84;84;78;83;83;80;84;84;83;83;83;
0;0;0;0;65;84;84;76;84;84;78;83;83;80;84;84;83;83;83;
0;0;0;0;65;84;84;76;84;84;78;83;83;80;84;84;83;83;83;
0;0;0;0;65;84;84;76;84;84;78;83;83;80;84;84;83;83;83;
0;0;0;0;65;84;84;76;84;84;78;83;83;80;84;84;83;83;83;
0;0;0;0;65;84;84;76;84;84;78;83;83;80;84;84;83;83;83;
0;0;0;0;65;84;84;76;84;84;78;83;83;80;84;84;83;83;83;
0;0;0;0;65;84;84;76;84;84;78;83;83;80;84;84;83;83;83;
0;0;0;0;65;84;84;76;84;84;78;83;83;80;84;84;83;83;83;
0;0;0;0;65;84;84;76;84;84;78;83;83;80;84;84;83;83;83;
0;0;0;0;65;84;84;76;84;84;78;83;83;80;84;84;83;83;83;
0;0;0;0;65;84;84;76;84;84;78;83;83;80;84;84;83;83;83;
0;0;0;0;65;84;84;76;84;84;78;83;83;80;84;84;83;83;83;
0;0;0;0;65;84;84;77;84;84;78;83;83;80;84;84;82;83;83;
0;0;0;0;65;84;84;77;84;84;78;83;83;80;84;84;82;83;83;
0;0;0;0;65;84;84;76;84;84;78;83;83;80;83;83;82;83;83;
0;0;0;0;65;84;84;76;84;84;78;83;83;80;83;83;82;83;83;
0;0;0;0;65;84;84;76;84;84;78;83;83;80;83;83;82;83;83;
0;0;0;0;65;84;84;76;84;84;78;83;83;80;83;83;82;83;83;
0;0;0;0;65;84;84;76;84;84;78;83;83;80;83;83;82;83;83;
0;0;0;0;65;84;84;76;84;84;78;83;83;80;83;83;82;83;83;
0;0;0;0;65;84;84;76;84;84;78;83;83;80;83;83;82;83;83;
0;0;0;0;65;84;84;76;84;84;78;83;83;80;83;83;82;83;83;
0;0;0;0;65;84;84;76;84;84;78;83;83;80;83;83;82;83;83;
0;0;0;0;65;84;84;76;84;84;78;83;83;80;83;83;82;83;83;
0;0;0;0;65;84;84;76;84;84;78;83;83;80;83;83;82;83;83;
0;0;0;0;65;84;84;76;84;84;78;83;83;80;83;83;82;83;83;
0;0;0;0;65;84;84;76;84;84;78;83;83;80;83;83;82;83;83;
0;0;0;0;65;84;84;76;84;84;78;83;83;80;83;83;82;83;83;
0;0;0;0;65;84;84;76;84;84;78;83;83;80;83;83;82;83;83;
0;0;0;0;65;84;84;76;84;84;78;83;83;80;83;83;82;83;83;
0;0;0;0;65;84;84;76;84;84;78;83;83;80;83;83;82;83;83;
0;0;0;0;65;84;84;76;84;84;78;83;83;80;83;83;82;83;83;
0;0;0;0;65;84;84;76;84;84;78;83;83;80;83;83;82;83;83;
0;0;0;0;65;84;84;76;84;84;78;83;83;80;83;83;82;83;83;
0;0;0;0;65;84;84;76;84;84;78;83;83;80;83;83;82;83;83;
0;0;0;0;65;84;84;76;84;84;78;83;83;80;83;83;82;83;83;
0;0;0;0;65;84;84;76;84;84;78;83;83;80;83;83;82;83;83;
0;0;0;0;65;84;84;76;84;84;78;83;83;80;83;83;82;83;83;
0;0;0;0;65;84;84;76;84;84;78;83;83;80;83;83;82;83;83;
0;0;0;0;65;84;84;76;84;84;78;83;83;80;83;83;82;83;83;
0;0;0;0;65;84;84;76;84;84;78;83;83;80;83;83;82;83;83;
0;0;0;0;65;84;84;76;84;84;78;83;83;80;83;83;82;83;83;
0;0;0;0;65;84;84;76;84;84;78;83;83;80;83;83;82;83;83;
0;0;0;0;65;84;84;76;84;84;78;83;83;80;83;83;82;83;83;
0;0;0;0;65;84;84;76;84;84;78;83;83;80;83;83;82;83;83;
0;0;0;0;65;84;84;76;84;84;78;83;83;80;83;83;82;83;83;
0;0;0;0;65;84;84;76;84;84;78;83;83;80;83;83;82;83;83;
0;0;0;0;65;84;84;76;84;84;78;83;83;80;83;83;82;83;83;
0;0;0;0;65;84;84;76;84;84;78;83;83;80;83;83;82;83;83;
0;0;0;0;65;84;84;76;84;84;78;83;83;80;83;83;82;83;83;
0;0;0;0;65;84;84;76;84;84;78;83;83;80;83;83;82;83;83;
0;0;0;0;65;84;84;76;84;84;78;83;83;80;83;83;82;83;83;
0;0;0;0;65;84;84;76;84;84;78;83;83;80;83;83;82;83;83;
0;0;0;0;65;84;84;76;84;84;78;83;83;80;83;83;82;83;83;
0;0;0;0;65;84;84;76;84;84;78;83;83;80;83;83;82;83;83;
0;0;0;0;65;84;84;76;84;84;78;83;83;80;83;83;82;83;83;
0;0;0;0;65;84;84;76;84;84;78;83;83;80;83;83;82;83;83;
0;0;0;0;65;84;84;76;84;84;78;83;83;80;83;83;82;83;83;
0;0;0;0;65;84;84;76;84;84;78;83;83;80;83;83;82;83;83;
0;0;0;0;65;84;84;76;84;84;78;83;83;80;83;83;82;83;83;
0;0;0;0;65;84;84;76;84;84;78;83;83;80;83;83;82;83;83;
0;0;0;0;65;84;84;76;84;84;78;83;83;80;83;83;82;83;83;
0;0;0;0;65;84;84;76;84;84;78;83;83;80;83;83;82;83;83;
0;0;0;0;65;84;84;76;84;84;78;83;83;80;83;83;82;83;83;
0;0;0;0;65;84;84;76;84;84;78;83;83;80;83;83;82;83;83;
0;0;0;0;65;84;84;76;84;84;78;83;83;80;83;83;82;83;83;
0;0;0;0;65;84;84;76;84;84;78;83;83;80;83;83;82;83;83;
0;0;0;0;65;84;84;76;84;84;78;83;83;80;83;83;82;83;83;
0;0;0;0;65;84;84;76;84;84;78;83;83;80;83;83;82;83;83;
0;0;0;0;65;84;84;76;84;84;78;83;83;80;83;83;82;83;83;
0;0;0;0;65;84;84;76;84;84;78;83;83;80;83;83;82;83;83;
0;0;0;0;65;84;84;76;84;84;78;83;83;80;83;83;82;83;83;
0;0;0;0;65;84;84;76;84;84;78;83;83;80;83;83;82;83;83;
0;0;0;0;65;84;84;76;84;84;78;83;83;80;83;83;82;83;83;
0;0;0;0;65;84;84;76;84;84;78;83;83;80;83;83;82;83;83;
0;0;0;0;65;84;84;76;84;84;78;83;83;80;83;83;82;83;83;
0;0;0;0;65;84;84;76;84;84;78;83;83;80;83;83;82;83;83;
0;0;0;0;65;84;84;76;84;84;78;83;83;80;83;83;82;83;83;
0;0;0;0;65;84;84;76;84;84;78;83;83;80;83;83;82;83;83;
0;0;0;0;65;84;84;76;84;84;78;83;83;80;83;83;82;83;83;
0;0;0;0;65;84;84;76;84;84;78;83;83;80;83;83;82;83;83;
0;0;0;0;65;84;84;76;84;84;78;83;83;80;83;83;82;83;83;
0;0;0;0;65;84;84;76;84;84;78;83;83;80;83;83;82;83;83;
0;0;0;0;65;84;84;76;84;84;78;83;83;80;83;83;82;83;83;
0;0;0;0;65;84;84;76;84;84;78;83;83;80;83;83;82;83;83;
0;0;0;0;65;84;84;76;84;84;78;83;83;80;83;83;82;83;83;
0;0;0;0;65;84;84;76;84;84;78;83;83;80;83;83;82;83;83;
0;0;0;0;65;84;84;76;84;84;78;83;83;80;83;83;82;83;83;
0;0;0;0;65;84;84;76;84;84;78;83;83;80;83;83;82;83;83;
0;0;0;0;65;84;84;76;84;84;78;83;83;80;83;83;82;83;83;
0;0;0;0;65;84;84;76;84;84;78;83;83;80;83;83;82;83;83;
0;0;0;0;65;84;84;76;84;84;78;83;83;80;83;83;82;83;83;
0;0;0;0;65;84;84;76;84;84;78;83;83;80;83;83;82;83;83;
0;0;0;0;65;84;84;76;84;84;78;83;83;80;83;83;82;83;83;
0;0;0;0;65;84;84;76;84;84;78;83;83;80;83;83;82;83;83;
0;0;0;0;65;84;84;76;84;84;78;83;83;80;83;83;82;83;83;
0;0;0;0;65;84;84;76;84;84;78;83;83;80;83;83;82;83;83;
0;0;0;0;65;84;84;76;84;84;78;83;83;80;83;83;82;83;83;
0;0;0;0;65;84;84;76;84;84;78;83;83;80;83;83;82;83;83;
0;0;0;0;65;84;84;76;84;84;78;83;83;80;83;83;82;83;83;
0;0;0;0;65;84;84;76;84;84;78;83;83;80;83;83;82;83;83;
0;0;0;0;65;84;84;76;84;84;78;83;83;80;83;83;82;83;83;
0;0;0;0;65;84;84;76;84;84;78;83;83;80;83;83;82;83;83;
0;0;0;0;65;84;84;76;84;84;78;83;83;80;83;83;82;83;83;
0;0;0;0;65;84;84;76;84;84;78;83;83;80;83;83;82;83;83;
0;0;0;0;65;84;84;76;84;84;78;83;83;80;83;83;82;83;83;
0;0;0;0;65;84;84;76;84;84;78;83;83;80;83;83;82;83;83;
0;0;0;0;65;84;84;76;84;84;78;83;83;80;83;83;82;83;83;
0;0;0;0;65;84;84;76;84;84;78;83;83;80;83;83;82;83;83;
0;0;0;0;65;84;84;76;84;84;78;83;83;80;83;83;82;83;83;
0;0;0;0;65;84;84;76;84;84;78;83;83;80;83;83;82;83;83;
0;0;0;0;65;84;84;76;84;84;78;83;83;80;83;83;82;83;83;
0;0;0;0;65;84;84;76;84;84;78;83;83;80;83;83;82;83;83;
0;0;0;0;65;84;84;76;84;84;78;83;83;80;83;83;82;83;83;
0;0;0;0;65;84;84;76;84;84;78;83;83;80;83;83;82;83;83;
0;0;0;0;65;84;84;76;84;84;78;83;83;80;83;83;82;83;83;
0;0;0;0;65;84;84;76;84;84;78;83;83;80;83;83;82;83;83;
0;0;0;0;65;84;84;76;84;84;78;83;83;80;83;83;82;83;83;
0;0;0;0;65;84;84;76;84;84;78;83;83;80;83;83;82;83;83;
0;0;0;0;65;84;84;76;84;84;78;83;83;80;83;83;82;83;83;
0;0;0;0;65;84;84;76;84;84;78;83;83;80;83;83;82;83;83;
0;0;0;0;65;84;84;76;84;84;78;83;83;80;83;83;82;83;83;
0;0;0;0;65;84;84;76;84;84;78;83;83;80;83;83;82;83;83;
0;0;0;0;65;84;84;76;84;84;78;83;83;80;83;83;82;83;83;
0;0;0;0;65;84;84;76;84;84;78;83;83;80;83;83;82;83;83;
0;0;0;0;65;84;84;76;84;84;78;83;83;80;83;83;82;83;83;
0;0;0;0;65;84;84;76;84;84;78;83;83;80;83;83;82;83;83;
0;0;0;0;65;84;84;76;84;84;78;83;83;80;83;83;82;83;83;
0;0;0;0;65;84;84;76;84;84;78;83;83;80;83;83;82;83;83;
0;0;0;0;65;84;84;76;84;84;78;83;83;80;83;83;82;83;83;
0;0;0;0;65;84;84;76;84;84;78;83;83;80;83;83;82;83;83;
0;0;0;0;65;84;84;76;84;84;78;83;83;80;83;83;82;83;83;
0;0;0;0;65;84;84;76;84;84;78;83;83;80;83;83;82;83;83;
0;0;0;0;65;84;84;76;84;84;78;83;83;80;83;83;82;83;83;
0;0;0;0;65;84;84;76;84;84;78;83;83;80;83;83;82;83;83;
0;0;0;0;65;84;84;76;84;84;78;83;83;80;83;83;82;83;83;
0;0;0;0;65;84;84;76;84;84;78;83;83;80;83;83;82;83;83;
0;0;0;0;65;84;84;76;84;84;78;83;83;80;83;83;82;83;83;
0;0;0;0;65;84;84;76;84;84;78;83;83;80;83;83;82;83;83;
0;0;0;0;65;84;84;76;84;84;78;83;83;80;83;83;82;83;83;
0;0;0;0;65;84;84;76;84;84;78;83;83;80;83;83;82;83;83;
0;0;0;0;65;84;84;76;84;84;78;83;83;80;83;83;82;83;83;
0;0;0;0;65;84;84;76;84;84;78;83;83;80;83;83;82;83;83;
0;0;0;0;65;84;84;76;84;84;78;83;83;80;83;83;82;83;83;
0;0;0;0;65;84;84;76;84;84;78;83;83;80;83;83;82;83;83;
0;0;0;0;65;84;84;76;84;84;78;83;83;80;83;83;82;83;83;
0;0;0;0;65;84;84;76;84;84;78;83;83;80;83;83;82;83;83;
0;0;0;0;65;84;84;76;84;84;78;83;83;80;83;83;82;83;83;
0;0;0;0;65;84;84;76;84;84;78;83;83;80;83;83;82;83;83;
0;0;0;0;65;84;84;77;84;84;78;83;83;80;83;83;82;83;83;
0;0;0;0;65;84;84;77;84;84;78;83;83;80;83;83;82;83;83;
0;0;0;0;65;84;84;77;84;84;78;83;83;80;83;83;82;83;83;
0;0;0;0;65;84;84;77;84;84;78;83;83;80;83;83;82;83;83;
0;0;0;0;65;84;84;77;84;84;78;83;83;80;83;83;82;83;83;
0;0;0;0;65;84;84;77;84;84;78;83;83;80;83;83;82;83;83;
0;0;0;0;65;84;84;77;84;84;79;83;83;80;83;83;82;82;82;
0;0;0;0;65;84;84;77;84;84;79;83;83;80;83;83;82;82;82;
0;0;0;0;65;84;84;77;84;84;79;83;83;80;83;83;82;82;82;
0;0;0;0;65;84;84;77;84;84;79;83;83;80;83;83;82;82;82;
0;0;0;0;65;84;84;77;84;84;79;83;83;80;83;83;82;82;82;
0;0;0;0;65;84;84;77;84;84;79;83;83;80;83;83;82;82;82;
0;0;0;0;65;84;84;77;84;84;79;83;83;80;83;83;82;82;82;
0;0;0;0;65;84;84;77;84;84;79;83;83;80;83;83;82;82;82;
0;0;0;0;65;84;84;77;84;84;79;83;83;80;83;83;82;82;82;
0;0;0;0;65;84;84;77;84;84;79;83;83;80;83;83;82;82;82;
0;0;0;0;65;84;84;77;84;84;79;83;83;80;83;83;82;82;82;
0;0;0;0;65;84;84;77;84;84;79;83;83;80;83;83;82;82;82;
0;0;0;0;65;84;84;77;84;84;79;83;83;80;83;83;82;82;82;
0;0;0;0;65;84;84;77;84;84;79;83;83;80;83;83;82;82;82;
0;0;0;0;65;84;84;77;84;84;79;83;83;80;83;83;82;82;82;
0;0;0;0;65;84;84;77;84;84;79;83;83;80;83;83;82;82;82;
0;0;0;0;65;84;84;77;84;84;79;83;83;80;83;83;82;82;82;
0;0;0;0;65;84;84;77;84;84;79;83;83;80;83;83;82;82;82;
0;0;0;0;65;84;84;77;84;84;79;83;83;80;83;83;82;82;82;
0;0;0;0;65;84;84;77;84;84;79;83;83;80;83;83;82;82;82;
0;0;0;0;65;84;84;77;84;84;79;83;83;80;83;83;82;82;82;
0;0;0;0;65;84;84;77;84;84;79;83;83;80;83;83;82;82;82;
0;0;0;0;65;84;84;77;84;84;79;83;83;80;83;83;82;82;82;
0;0;0;0;65;84;84;77;84;84;79;83;83;80;83;83;82;82;82;
0;0;0;0;65;84;84;77;84;84;79;83;83;80;83;83;82;82;82;
0;0;0;0;65;84;84;77;84;84;79;83;83;80;83;83;82;82;82;
0;0;0;0;65;84;84;77;84;84;79;83;83;80;83;83;82;82;82;
0;0;0;0;65;84;84;77;84;84;79;83;83;80;83;83;82;82;82;
0;0;0;0;65;84;84;77;84;84;79;83;83;80;83;83;82;82;82;
0;0;0;0;65;84;84;77;84;84;79;83;83;80;83;83;82;82;82;
0;0;0;0;65;84;84;77;84;84;79;83;83;80;83;83;82;82;82;
0;0;0;0;65;84;84;77;84;84;79;83;83;80;83;83;82;82;82;
0;0;0;0;65;84;84;77;84;84;79;83;83;80;83;83;82;82;82;
0;0;0;0;65;84;84;77;84;84;79;83;83;80;83;83;82;82;82;
0;0;0;0;65;84;84;77;84;84;79;83;83;80;83;83;82;82;82;
0;0;0;0;65;84;84;77;84;84;79;83;83;80;83;83;82;82;82;
0;0;0;0;65;84;84;77;84;84;79;83;83;80;83;83;82;82;82;
0;0;0;0;65;84;84;77;84;84;79;83;83;80;83;83;82;82;82;
0;0;0;0;65;84;84;77;84;84;79;83;83;80;83;83;82;82;82;
0;0;0;0;65;84;84;77;84;84;79;83;83;80;83;83;82;82;82;
0;0;0;0;65;84;84;77;84;84;79;83;83;80;83;83;82;82;82;
0;0;0;0;65;84;84;77;84;84;79;83;83;80;83;83;82;82;82;
0;0;0;0;65;84;84;77;84;84;79;83;83;80;83;83;82;82;82;
0;0;0;0;65;84;84;77;84;84;79;83;83;80;83;83;82;82;82;
0;0;0;0;65;84;84;77;84;84;79;83;83;80;83;83;82;82;82;
0;0;0;0;65;84;84;77;84;84;79;83;83;80;83;83;82;82;82;
0;0;0;0;65;84;84;77;84;84;79;83;83;80;83;83;82;82;82;
0;0;0;0;65;84;84;77;84;84;79;83;83;80;83;83;82;82;82;
0;0;0;0;65;84;84;77;84;84;79;83;83;80;83;83;82;82;82;
0;0;0;0;65;84;84;77;84;84;79;83;83;80;83;83;82;82;82;
0;0;0;0;65;84;84;77;84;84;79;83;83;80;83;83;82;82;82;
0;0;0;0;65;84;84;77;84;84;79;83;83;80;83;83;82;82;82;
0;0;0;0;65;84;84;77;84;84;79;83;83;80;83;83;82;82;82;
0;0;0;0;65;84;84;77;84;84;79;83;83;79;83;83;82;82;82;
0;0;0;0;65;84;84;77;84;84;79;83;83;79;83;83;82;82;82;
0;0;0;0;65;84;84;77;84;84;79;83;83;79;83;83;82;82;82;
0;0;0;0;65;84;84;77;84;84;79;83;83;79;83;83;82;82;82;
0;0;0;0;65;84;84;77;84;84;79;83;83;79;83;83;82;82;82;
0;0;0;0;65;84;84;77;84;84;79;83;83;79;83;83;82;82;82;
0;0;0;0;65;84;84;77;84;84;79;83;83;79;83;83;82;82;82;
0;0;0;0;65;84;84;77;84;84;79;83;83;79;83;83;82;82;82;
0;0;0;0;65;84;84;77;84;84;79;83;83;79;83;83;82;82;82;
0;0;0;0;65;84;84;77;84;84;79;83;83;79;83;83;82;82;82;
0;0;0;0;65;84;84;77;84;84;79;83;83;79;83;83;82;82;82;
0;0;0;0;65;84;84;77;84;84;79;83;83;79;83;83;82;82;82;
0;0;0;0;65;84;84;77;84;84;79;83;83;79;83;83;82;82;82;
0;0;0;0;65;84;84;77;84;84;79;83;83;79;83;83;82;82;82;
0;0;0;0;65;84;84;77;84;84;79;83;83;79;83;83;82;82;82;
0;0;0;0;65;84;84;77;84;84;79;83;83;79;83;83;82;82;82;
0;0;0;0;65;84;84;77;84;84;79;83;83;79;83;83;82;82;82;
0;0;0;0;65;84;84;77;84;84;79;83;83;79;83;83;82;82;82;
0;0;0;0;65;84;84;77;84;84;79;83;83;79;83;83;82;82;82;
0;0;0;0;65;84;84;77;84;84;79;83;83;79;83;83;82;82;82;
0;0;0;0;65;84;84;77;84;84;79;83;83;79;83;83;82;82;82;
0;0;0;0;65;84;84;77;84;84;79;83;83;79;83;83;82;82;82;
0;0;0;0;65;84;84;77;84;84;79;83;83;79;83;83;82;82;82;
0;0;0;0;65;84;84;77;84;84;79;83;83;79;83;83;82;82;82;
0;0;0;0;65;84;84;77;84;84;79;83;83;79;83;83;82;82;82;
0;0;0;0;65;84;84;77;84;84;79;83;83;79;83;83;82;82;82;
0;0;0;0;65;84;84;77;84;84;79;83;83;79;83;83;82;82;82;
0;0;0;0;66;84;84;77;84;84;78;83;83;79;83;83;82;82;82;
0;0;0;0;66;84;84;77;84;84;78;83;83;79;83;83;82;82;82;
0;0;0;0;66;84;84;77;84;84;78;83;83;79;83;83;82;82;82;
0;0;0;0;66;84;84;77;84;84;78;83;83;79;83;83;82;82;82;
0;0;0;0;66;84;84;77;84;84;78;83;83;79;83;83;82;82;82;
0;0;0;0;66;84;84;77;84;84;78;83;83;79;83;83;82;82;82;
0;0;0;0;66;84;84;77;84;84;78;83;83;79;83;83;82;82;82;
0;0;0;0;66;84;84;77;84;84;78;83;83;79;83;83;82;82;82;
0;0;0;0;66;84;84;77;84;84;78;83;83;79;83;83;82;82;82;
0;0;0;0;66;84;84;77;84;84;78;83;83;79;83;83;82;82;82;
0;0;0;0;66;84;84;77;84;84;78;83;83;79;83;83;82;82;82;
0;0;0;0;66;84;84;77;84;84;78;83;83;79;83;83;82;82;82;
0;0;0;0;66;84;84;77;84;84;78;83;83;79;83;83;82;82;82;
0;0;0;0;66;84;84;77;84;84;78;83;83;79;83;83;82;82;82;
0;0;0;0;66;84;84;77;84;84;78;83;83;79;83;83;82;82;82;
0;0;0;0;66;84;84;77;84;84;78;83;83;79;83;83;82;82;82;
0;0;0;0;66;84;84;77;84;84;78;83;83;79;83;83;82;82;82;
0;0;0;0;66;84;84;77;84;84;78;83;83;79;83;83;82;82;82;
0;0;0;0;66;84;84;77;84;84;78;83;83;79;83;83;82;82;82;
0;0;0;0;66;84;84;77;84;84;78;83;83;79;83;83;82;82;82;
0;0;0;0;66;84;84;77;84;84;78;83;83;79;83;83;82;82;82;
0;0;0;0;66;84;84;77;84;84;78;83;83;79;83;83;82;82;82;
0;0;0;0;66;84;84;77;84;84;78;83;83;79;83;83;82;82;82;
0;0;0;0;66;84;84;77;84;84;78;83;83;79;83;83;82;82;82;
0;0;0;0;66;84;84;77;84;84;78;83;83;79;83;83;82;82;82;
0;0;0;0;66;84;84;77;84;84;78;83;83;79;83;83;82;82;82;
0;0;0;0;66;84;84;77;84;84;78;83;83;79;83;83;82;82;82;
0;0;0;0;66;84;84;77;84;84;78;83;83;79;83;83;82;82;82;
0;0;0;0;66;84;84;77;84;84;78;83;83;79;83;83;82;82;82;
0;0;0;0;66;84;84;77;84;84;78;83;83;79;83;83;82;82;82;
0;0;0;0;66;84;84;77;84;84;78;83;83;79;83;83;82;82;82;
0;0;0;0;66;84;84;77;84;84;78;83;83;79;83;83;82;82;82;
0;0;0;0;66;84;84;77;84;84;78;83;83;79;83;83;82;82;82;
0;0;0;0;66;84;84;77;84;84;78;83;83;79;83;83;82;82;82;
0;0;0;0;66;84;84;77;84;84;78;83;83;79;83;83;82;82;82;
0;0;0;0;66;84;84;77;84;84;78;83;83;79;83;83;82;82;82;
0;0;0;0;66;84;84;77;84;84;78;83;83;79;83;83;82;82;82;
0;0;0;0;66;84;84;77;84;84;78;83;83;79;83;83;82;82;82;
0;0;0;0;66;84;84;77;84;84;78;83;83;79;83;83;82;82;82;
0;0;0;0;66;84;84;77;84;84;78;83;83;79;83;83;82;82;82;
0;0;0;0;66;84;84;77;84;84;78;83;83;79;83;83;82;82;82;
0;0;0;0;66;84;84;77;84;84;78;83;83;79;83;83;82;82;82;
0;0;0;0;66;84;84;77;84;84;78;83;83;79;83;83;82;82;82;
0;0;0;0;66;84;84;77;84;84;78;83;83;79;83;83;82;82;82;
0;0;0;0;66;84;84;77;84;84;78;83;83;79;83;83;82;82;82;
0;0;0;0;66;84;84;77;84;84;78;83;83;79;83;83;82;82;82;
0;0;0;0;66;84;84;77;84;84;78;83;83;79;83;83;82;82;82;
0;0;0;0;66;84;84;77;84;84;78;83;83;79;83;83;82;82;82;
0;0;0;0;66;84;84;77;84;84;78;83;83;79;83;83;82;82;82;
0;0;0;0;66;84;84;77;84;84;78;83;83;79;83;83;82;82;82;
0;0;0;0;66;84;84;77;84;84;78;83;83;79;83;83;82;82;82;
0;0;0;0;66;84;84;77;84;84;78;83;83;79;83;83;82;82;82;
0;0;0;0;66;84;84;77;84;84;78;83;83;79;83;83;82;82;82;
0;0;0;0;66;84;84;77;84;84;78;83;83;79;83;83;82;82;82;
0;0;0;0;66;84;84;77;84;84;78;83;83;79;83;83;82;82;82;
0;0;0;0;66;84;84;77;84;84;78;83;83;79;83;83;82;82;82;
0;0;0;0;66;84;84;77;84;84;78;83;83;79;83;83;82;82;82;
0;0;0;0;66;84;84;77;84;84;78;83;83;79;83;83;82;82;82;
0;0;0;0;66;84;84;77;84;84;78;83;83;79;83;83;82;82;82;
0;0;0;0;66;84;84;77;84;84;78;83;83;79;83;83;82;82;82;
0;0;0;0;66;84;84;77;84;84;78;83;83;79;83;83;82;82;82;
0;0;0;0;66;84;84;77;84;84;78;83;83;79;83;83;82;82;82;
0;0;0;0;66;84;84;77;84;84;78;83;83;79;83;83;82;82;82;
0;0;0;0;66;84;84;77;84;84;78;83;83;79;83;83;82;82;82;
0;0;0;0;66;84;84;77;84;84;78;83;83;79;83;83;82;82;82;
0;0;0;0;66;84;84;77;84;84;78;83;83;79;83;83;82;82;82;
0;0;0;0;66;84;84;77;84;84;78;83;83;79;83;83;82;82;82;
0;0;0;0;66;84;84;77;84;84;78;83;83;79;83;83;82;82;82;
0;0;0;0;66;84;84;77;84;84;78;83;83;79;83;83;82;82;82;
0;0;0;0;66;84;84;77;84;84;78;83;83;79;83;83;82;82;82;
0;0;0;0;66;84;84;77;84;84;78;83;83;79;83;83;82;82;82;
0;0;0;0;66;84;84;77;84;84;78;83;83;79;83;83;82;82;82;
0;0;0;0;66;84;84;77;84;84;78;83;83;79;83;83;82;82;82;
0;0;0;0;66;84;84;77;84;84;78;83;83;79;83;83;82;82;82;
0;0;0;0;66;84;84;77;84;84;78;83;83;79;83;83;82;82;82;
0;0;0;0;66;84;84;77;84;84;78;83;83;79;83;83;82;82;82;
0;0;0;0;66;84;84;77;84;84;78;83;83;79;83;83;82;82;82;
0;0;0;0;66;84;84;77;84;84;78;83;83;79;83;83;82;82;82;
0;0;0;0;66;84;84;77;84;84;78;83;83;79;83;83;82;82;82;
0;0;0;0;66;84;84;77;84;84;78;83;83;79;83;83;82;82;82;
0;0;0;0;66;84;84;77;84;84;78;83;83;79;83;83;82;82;82;
0;0;0;0;66;84;84;77;84;84;78;83;83;79;83;83;82;82;82;
0;0;0;0;66;84;84;77;84;84;78;83;83;79;83;83;82;82;82;
0;0;0;0;66;84;84;77;84;84;78;83;83;79;83;83;82;82;82;
0;0;0;0;66;84;84;77;84;84;78;83;83;79;83;83;82;82;82;
0;0;0;0;66;84;84;77;84;84;78;83;83;79;83;83;82;82;82;
0;0;0;0;66;84;84;77;84;84;78;83;83;79;83;83;82;82;82;
0;0;0;0;66;84;84;77;84;84;78;83;83;79;83;83;82;82;82;
0;0;0;0;66;84;84;77;84;84;78;83;83;79;83;83;82;82;82;
0;0;0;0;66;84;84;77;84;84;78;83;83;79;83;83;82;82;82;
0;0;0;0;66;84;84;77;84;84;78;83;83;79;83;83;82;82;82;
0;0;0;0;66;84;84;77;84;84;78;83;83;79;83;83;82;82;82;
0;0;0;0;66;84;84;77;84;84;78;83;83;79;83;83;82;82;82;
0;0;0;0;66;84;84;77;84;84;78;83;83;79;83;83;82;82;82;
0;0;0;0;66;84;84;77;84;84;78;83;83;79;83;83;82;82;82;
0;0;0;0;66;84;84;77;84;84;78;83;83;79;83;83;82;82;82;
0;0;0;0;66;84;84;77;84;84;78;83;83;79;83;83;82;82;82;
0;0;0;0;66;84;84;77;84;84;78;83;83;79;83;83;82;82;82;
0;0;0;0;66;84;84;77;84;84;78;83;83;79;83;83;82;82;82;
0;0;0;0;66;84;84;77;84;84;78;83;83;79;83;83;82;82;82;
0;0;0;0;66;84;84;77;84;84;78;83;83;79;83;83;82;82;82;
0;0;0;0;66;84;84;77;84;84;78;83;83;79;83;83;82;82;82;
0;0;0;0;66;84;84;77;84;84;78;83;83;79;83;83;82;82;82;
0;0;0;0;66;84;84;77;84;84;78;83;83;79;83;83;82;82;82;
0;0;0;0;66;84;84;77;84;84;78;83;83;79;83;83;82;82;82;
0;0;0;0;66;84;84;77;84;84;78;83;83;79;83;83;82;82;82;
0;0;0;0;66;84;84;77;84;84;78;83;83;79;83;83;82;82;82;
0;0;0;0;66;84;84;77;84;84;78;83;83;79;83;83;82;82;82;
0;0;0;0;66;84;84;77;84;84;78;83;83;79;83;83;82;82;82;
0;0;0;0;66;84;84;77;84;84;78;83;83;79;83;83;82;82;82;
0;0;0;0;66;84;84;77;84;84;78;83;83;79;83;83;82;82;82;
0;0;0;0;66;84;84;77;84;84;78;83;83;79;83;83;82;82;82;
0;0;0;0;66;84;84;77;84;84;78;83;83;79;83;83;82;82;82;
0;0;0;0;66;84;84;77;84;84;78;83;83;79;83;83;82;82;82;
0;0;0;0;66;84;84;77;84;84;78;83;83;79;83;83;82;82;82;
0;0;0;0;66;84;84;77;84;84;78;83;83;79;83;83;82;82;82;
0;0;0;0;66;84;84;77;84;84;78;83;83;79;83;83;82;82;82;
0;0;0;0;66;84;84;77;84;84;78;83;83;79;83;83;82;82;82;
0;0;0;0;66;84;84;77;84;84;78;83;83;79;83;83;82;82;82;
0;0;0;0;66;84;84;77;84;84;78;83;83;79;83;83;82;82;82;
0;0;0;0;66;84;84;77;84;84;78;83;83;79;83;83;82;82;82;
0;0;0;0;66;84;84;77;84;84;78;83;83;79;83;83;82;82;82;
0;0;0;0;66;84;84;77;84;84;78;83;83;79;83;83;82;82;82;
0;0;0;0;66;84;84;77;84;84;78;83;83;79;83;83;82;82;82;
0;0;0;0;66;84;84;77;84;84;78;83;83;79;83;83;82;82;82;
0;0;0;0;66;84;84;77;84;84;78;83;83;79;83;83;82;82;82;
0;0;0;0;66;84;84;77;84;84;78;83;83;79;83;83;82;82;82;
0;0;0;0;66;84;84;77;84;84;78;83;83;79;83;83;82;82;82;
0;0;0;0;66;84;84;77;84;84;78;83;83;79;83;83;82;82;82;
0;0;0;0;66;84;84;77;84;84;78;83;83;79;83;83;82;82;82;
0;0;0;0;66;84;84;77;84;84;78;83;83;79;83;83;82;82;82;
0;0;0;0;66;84;84;77;84;84;78;83;83;79;83;83;82;82;82;
0;0;0;0;66;84;84;77;84;84;78;83;83;79;83;83;82;82;82;
0;0;0;0;66;84;84;77;84;84;78;83;83;79;83;83;82;82;82;
0;0;0;0;66;84;84;77;84;84;78;83;83;79;83;83;82;82;82;
0;0;0;0;66;84;84;77;84;84;78;83;83;79;83;83;82;82;82;
0;0;0;0;66;84;84;77;84;84;78;83;83;79;83;83;82;82;82;
0;0;0;0;66;84;84;77;84;84;78;83;83;79;83;83;82;82;82;
0;0;0;0;66;84;84;77;84;84;78;83;83;79;83;83;82;82;82;
0;0;0;0;66;84;84;77;84;84;78;83;83;79;83;83;82;82;82;
0;0;0;0;66;84;84;77;84;84;78;83;83;79;83;83;82;82;82;
0;0;0;0;66;84;84;77;84;84;78;83;83;79;83;83;82;82;82;
0;0;0;0;66;84;84;77;84;84;78;83;83;79;83;83;82;82;82;
0;0;0;0;66;84;84;77;84;84;78;83;83;79;83;83;82;82;82;
0;0;0;0;66;84;84;77;84;84;78;83;83;79;83;83;82;82;82;
0;0;0;0;66;84;84;77;84;84;78;83;83;79;83;83;82;82;82;
0;0;0;0;66;84;84;77;84;84;78;83;83;79;83;83;82;82;82;
0;0;0;0;66;84;84;77;84;84;78;83;83;79;83;83;82;82;82;
0;0;0;0;66;84;84;77;84;84;78;83;83;79;83;83;82;82;82;
0;0;0;0;66;84;84;77;84;84;78;83;83;79;83;83;82;82;82;
0;0;0;0;66;84;84;77;84;84;78;83;83;79;83;83;82;82;82;
0;0;0;0;66;84;84;77;84;84;78;83;83;79;83;83;82;82;82;
0;0;0;0;66;84;84;77;84;84;78;83;83;79;83;83;82;82;82;
0;0;0;0;66;84;84;77;84;84;78;83;83;79;83;83;82;82;82;
0;0;0;0;66;84;84;77;84;84;78;83;83;79;83;83;82;82;82;
0;0;0;0;66;84;84;77;84;84;78;83;83;79;83;83;82;82;82;
0;0;0;0;66;84;84;77;84;84;78;83;83;79;83;83;82;82;82;
0;0;0;0;66;84;84;77;84;84;78;83;83;79;83;83;82;82;82;
0;0;0;0;66;84;84;77;84;84;78;83;83;79;83;83;82;82;82;
0;0;0;0;66;84;84;77;84;84;78;83;83;79;83;83;82;82;82;
0;0;0;0;66;84;84;77;84;84;78;83;83;79;83;83;82;82;82;
0;0;0;0;66;84;84;77;84;84;78;83;83;79;83;83;82;82;82;
0;0;0;0;66;84;84;77;84;84;78;83;83;79;83;83;82;82;82;
0;0;0;0;66;84;84;77;84;84;78;83;83;79;83;83;82;82;82;
0;0;0;0;66;84;84;77;84;84;78;83;83;79;83;83;82;82;82;
0;0;0;0;66;84;84;77;84;84;78;83;83;79;83;83;82;82;82;
0;0;0;0;66;84;84;77;84;84;78;83;83;79;83;83;82;82;82;
0;0;0;0;66;84;84;77;84;84;78;83;83;79;83;83;82;82;82;
0;0;0;0;66;84;84;77;84;84;78;83;83;79;83;83;82;82;82;
0;0;0;0;66;84;84;77;84;84;78;83;83;79;83;83;82;82;82;
0;0;0;0;66;84;84;77;84;84;78;83;83;79;83;83;82;82;82;
0;0;0;0;66;84;84;77;84;84;78;82;82;79;83;83;81;82;82;
0;0;0;0;66;84;84;77;84;84;78;82;82;79;83;83;81;82;82;
0;0;0;0;66;84;84;77;84;84;78;82;82;79;83;83;81;82;82;
0;0;0;0;66;84;84;77;84;84;78;82;82;79;83;83;81;82;82;
0;0;0;0;66;84;84;77;84;84;78;82;82;79;83;83;81;82;82;
0;0;0;0;66;84;84;77;84;84;78;82;82;79;83;83;81;82;82;
0;0;0;0;66;84;84;77;84;84;78;82;82;79;83;83;81;82;82;
0;0;0;0;66;84;84;77;84;84;78;82;82;79;83;83;81;82;82;
0;0;0;0;66;84;84;77;84;84;78;82;82;79;83;83;81;82;82;
0;0;0;0;66;84;84;77;84;84;78;82;82;79;83;83;81;82;82;
0;0;0;0;66;84;84;77;84;84;78;82;82;79;83;83;81;82;82;
0;0;0;0;66;84;84;77;84;84;78;82;82;79;83;83;81;82;82;
0;0;0;0;66;84;84;77;84;84;78;82;82;79;83;83;81;82;82;
0;0;0;0;66;84;84;77;84;84;78;82;82;79;83;83;81;82;82;
0;0;0;0;66;84;84;77;84;84;78;82;82;79;83;83;81;82;82;
0;0;0;0;66;84;84;77;84;84;78;82;82;79;83;83;81;82;82;
0;1;0;1;66;84;84;77;84;84;78;82;82;79;83;83;81;82;82;
1;0;1;1;66;84;84;77;84;84;78;82;82;79;83;83;81;82;82;
1;1;1;1;66;84;84;77;84;84;78;82;82;79;83;83;81;82;82;
1;1;1;1;66;84;84;77;84;84;78;82;82;79;83;83;81;82;82;
1;1;1;1;66;84;84;77;84;84;78;82;82;79;83;83;81;82;82;
1;1;1;1;66;84;84;77;84;84;78;82;82;79;83;83;81;82;82;
1;1;1;1;66;84;84;77;84;84;78;82;82;79;83;83;81;82;82;
1;1;1;1;66;84;84;77;84;84;78;82;82;79;83;83;81;82;82;
1;1;1;1;66;84;84;77;84;84;78;82;82;79;83;83;81;82;82;
1;1;1;1;66;84;84;77;84;84;78;82;82;79;83;83;81;82;82;
1;1;1;1;66;84;84;77;84;84;78;82;82;79;83;83;81;82;82;
1;1;1;1;66;84;84;77;84;84;78;82;82;79;83;83;81;82;82;
1;1;1;1;66;84;84;77;84;84;78;82;82;79;83;83;81;82;82;
1;1;1;1;66;84;84;77;84;84;78;82;82;79;83;83;81;82;82;
1;1;1;1;66;84;84;77;84;84;78;82;82;79;83;83;81;82;82;
1;1;1;1;66;84;84;77;84;84;78;82;82;79;83;83;81;82;82;
1;1;1;1;66;84;84;77;84;84;78;82;82;79;83;83;81;82;82;
1;1;1;1;66;84;84;77;84;84;78;82;82;79;83;83;81;82;82;
1;1;1;1;66;84;84;77;84;84;78;82;82;79;83;83;81;82;82;
1;1;1;1;66;84;84;77;84;84;78;82;82;79;83;83;81;82;82;
1;1;1;1;66;84;84;77;84;84;78;82;82;79;83;83;81;82;82;
1;1;1;1;66;84;84;77;84;84;78;82;82;79;83;83;81;82;82;
1;1;1;1;66;84;84;77;84;84;78;82;82;79;83;83;81;82;82;
1;1;1;1;66;84;84;77;84;84;78;82;82;79;83;83;81;82;82;
1;1;1;1;66;84;84;77;84;84;78;82;82;79;83;83;81;82;82;
1;1;1;1;66;84;84;77;84;84;78;82;82;79;83;83;81;82;82;
1;1;1;1;66;84;84;77;84;84;78;82;82;79;83;83;81;82;82;
1;1;1;1;66;84;84;77;84;84;78;82;82;79;83;83;81;82;82;
1;1;1;1;66;84;84;77;84;84;78;82;82;79;83;83;81;82;82;
1;1;1;1;66;84;84;77;84;84;78;82;82;79;83;83;81;82;82;
1;1;1;1;66;84;84;77;84;84;78;82;82;79;83;83;81;82;82;
1;1;1;1;66;84;84;77;84;84;78;82;82;79;83;83;81;82;82;
1;1;1;1;66;84;84;77;84;84;78;82;82;79;83;83;81;82;82;
1;1;1;1;66;84;84;77;84;84;78;82;82;79;83;83;81;82;82;
1;1;1;1;66;84;84;77;84;84;78;82;82;79;83;83;81;82;82;
1;1;1;1;66;84;84;77;84;84;78;82;82;79;83;83;81;82;82;
1;1;1;1;66;84;84;77;84;84;78;82;82;79;83;83;81;82;82;
1;1;1;1;66;84;84;77;84;84;78;82;82;79;83;83;81;82;82;
1;1;1;1;66;84;84;77;84;84;78;82;82;79;83;83;81;82;82;
1;1;1;1;66;84;84;77;84;84;78;82;82;79;83;83;81;82;82;
1;1;1;1;66;84;84;77;84;84;78;82;82;79;83;83;81;82;82;
1;1;1;1;66;84;84;77;84;84;78;82;82;79;83;83;81;82;82;
1;1;1;1;66;84;84;77;84;84;78;82;82;79;83;83;81;82;82;
1;1;1;1;66;84;84;77;84;84;78;82;82;79;83;83;81;82;82;
