## File generated by myo_cap software 
## Available from github.com/ddantas/myo_cap 
## Timestamp: 2020-01-22_14-08-46 
##  
## EMG capture settings 
##  
# sampleRate: 2000 
# channelsPerBoard: 4 
# nBoards: 1 
# bitsPerSample: 12 
# ch1;ch2;ch3;ch4
3311;-3900;-3900;64
228;160;180;175
116;156;119;100
134;94;112;111
68;119;72;88
125;72;111;64
100;95;80;111
68;88;95;64
80;95;64;102
79;72;95;48
68;95;48;80
95;48;87;79
40;84;79;64
95;48;90;71
40;87;40;64
95;40;68;79
36;95;40;76
95;44;92;63
44;87;36;80
79;48;78;95
60;72;48;64
95;48;80;63
40;92;52;64
94;44;84;79
40;95;52;68
95;48;86;95
71;64;95;48
95;64;94;70
102;79;80;95
64;84;95;77
80;103;64;108
95;72;95;64
84;95;64;111
71;88;95;52
64;95;64;102
79;64;92;95
40;95;54;92
95;64;95;79
48;95;48;72
95;44;95;44
64;95;48;92
60;52;95;71
48;95;40;86
79;64;87;47
64;95;48;76
95;36;95;55
64;79;52;79
44;64;71;36
64;79;44;79
40;76;63;36
48;79;32;64
79;36;79;79
32;76;46;64
95;36;78;47
64;63;52;87
44;64;90;79
64;93;48;76
95;68;79;64
86;55;72;79
64;103;71;80
95;52;88;48
76;55;68;95
52;64;95;48
84;46;72;95
63;68;79;64
103;52;80;95
52;103;64;103
79;64;92;63
72;95;64;95
52;80;63;64
95;44;72;63
48;87;40;48
86;32;64;42
40;79;32;78
32;68;36;56
79;32;68;47
48;79;32;79
32;79;32;74
47;40;79;32
68;47;52;63
40;87;36;79
32;87;32;68
47;72;32;72
87;32;72;55
48;79;36;48
87;36;87;32
48;79;32;52
87;32;84;44
44;79;55;52
95;36;68;87
40;93;44;64
95;48;95;40
52;93;44;94
52;94;63;72
95;64;95;44
84;79;64;95
64;95;64;111
56;94;79;64
102;71;80;87
76;95;64;111
52;109;64;109
52;95;60;72
87;64;87;48
72;87;48;76
87;52;88;52
64;95;44;80
87;48;78;47
52;95;44;84
47;68;79;40
90;36;87;32
52;79;32;79
63;40;79;47
32;79;32;76
55;48;79;32
64;63;48;79
40;79;40;87
40;79;48;87
52;79;40;95
40;92;36;87
47;64;79;52
95;40;76;63
68;63;68;79
48;84;87;64
92;48;64;72
95;48;80;44
64;79;48;95
79;72;79;48
92;62;68;95
40;94;71;68
109;48;88;95
64;95;65;64
103;52;80;79
40;92;79;40
84;32;76;87
53;68;63;48
86;32;64;94
71;64;63;64
95;40;64;87
32;78;32;52
93;36;64;63
36;64;87;32
64;39;52;79
20;68;36;52
79;20;68;63
24;75;39;32
76;32;44;79
20;64;47;32
76;16;60;63
16;64;47;32
76;16;64;63
45;36;76;28
48;79;32;70
47;48;79;36
84;32;76;63
32;84;32;64
95;40;68;79
40;64;38;52
95;32;78;79
44;56;95;36
68;47;52;95
58;76;95;44
72;87;48;92
87;64;95;40
80;71;64;103
87;48;103;44
84;79;64;95
48;72;63;64
95;40;84;79
40;95;40;78
95;52;95;40
76;87;52;95
40;95;48;64
95;48;93;32
72;63;72;79
48;79;36;72
47;52;87;39
40;78;32;64
87;32;87;32
64;79;40;79
46;56;86;38
40;84;32;48
87;36;77;34
40;79;38;72
32;79;32;84
48;61;56;63
64;63;64;79
52;79;64;87
64;63;72;44
68;63;64;87
64;87;64;95
64;79;68;95
72;78;76;87
80;69;76;95
68;87;72;103
52;95;56;92
95;68;95;72
109;52;107;56
96;56;88;68
88;56;86;79
84;63;84;68
80;63;76;79
72;52;78;79
64;93;64;95
64;77;68;78
72;63;68;87
64;79;64;92
48;84;63;64
95;40;92;36
76;38;68;63
64;63;64;24
64;63;52;79
56;55;64;63
64;54;68;63
64;61;64;46
76;36;76;47
72;47;68;32
64;45;68;55
68;44;68;55
64;55;64;79
56;79;64;79
64;79;68;95
68;87;64;95
48;95;48;95
64;92;87;54
64;103;61;84
111;64;110;64
80;95;64;111
64;94;111;79
64;111;72;95
64;96;93;64
84;71;84;95
64;100;56;80
95;68;95;64
88;60;64;95
52;92;48;80
95;48;86;71
40;87;63;72
95;48;64;95
36;76;54;72
87;52;95;44
48;86;32;64
87;52;79;32
68;63;48;80
63;52;79;32
78;63;48;79
36;68;55;36
79;36;56;79
32;71;40;44
79;36;52;63
36;79;32;64
79;32;66;63
36;87;61;44
80;40;76;47
48;87;40;78
55;64;95;36
80;55;68;95
63;48;88;47
64;79;64;95
79;64;95;64
84;44;64;79
48;84;87;52
80;48;80;79
64;95;64;95
54;80;95;52
72;95;64;95
56;80;95;52
92;52;76;79
64;86;44;68
95;64;95;36
68;79;68;95
44;95;52;64
95;40;80;79
40;82;46;64
95;48;80;63
36;79;55;48
87;32;64;79
24;76;60;36
80;16;64;63
32;68;24;48
79;20;48;79
47;36;72;36
48;79;40;79
24;64;45;48
79;32;52;79
16;68;79;32
72;28;56;79
32;76;42;52
87;24;64;79
47;44;79;32
72;63;52;93
63;64;79;36
84;44;72;87
32;87;36;88
71;64;84;79
48;95;48;93
71;64;86;79
64;95;48;95
63;80;79;48
80;95;63;72
103;52;76;95
40;86;54;64
95;48;76;87
48;95;52;64
95;36;84;79
48;92;40;64
95;32;68;79
40;79;32;72
79;40;70;79
32;76;55;64
93;32;68;79
44;56;63;40
79;24;70;55
32;70;47;36
79;32;64;63
20;64;43;48
79;20;68;55
24;70;44;64
79;32;79;47
32;70;55;48
87;36;64;79
32;72;36;64
87;48;87;47
64;63;48;94
58;48;95;52
48;84;52;64
95;36;84;63
48;91;40;80
79;64;92;62
64;94;79;48
100;52;64;95
87;48;95;54
68;95;64;103
48;80;87;44
84;44;52;95
71;44;84;63
64;55;64;92
71;64;79;36
78;61;48;87
45;76;47;48
86;32;68;63
40;76;47;40
72;20;52;79
20;68;32;79
44;32;68;63
20;64;55;32
71;28;44;79
20;64;39;36
71;24;64;63
20;68;55;32
78;16;64;63
20;68;55;32
76;22;56;79
24;70;36;52
87;32;79;79
36;72;63;48
87;32;72;79
36;80;71;40
86;32;56;95
58;52;80;63
64;79;40;84
79;48;86;52
64;87;48;84
79;72;87;48
94;40;84;87
48;88;76;64
100;52;64;95
40;80;95;40
76;60;52;95
47;72;71;64
95;36;76;79
40;76;63;52
94;32;68;79
32;84;36;68
79;32;64;63
36;72;63;32
72;32;40;79
61;32;79;32
64;63;56;79
36;79;32;64
79;32;64;79
53;44;71;40
79;32;52;79
38;64;63;40
76;61;68;93
32;78;55;48
90;36;72;79
48;64;63;48
87;32;68;63
52;95;40;86
63;40;80;79
36;87;36;72
95;40;76;95
87;48;80;79
64;87;44;72
87;64;95;40
84;60;68;95
52;84;95;64
101;48;76;95
77;52;88;63
68;79;64;80
79;68;95;40
80;40;48;95
71;48;84;36
68;55;40;84
79;40;76;63
48;79;48;93
45;64;63;40
78;40;64;79
44;48;79;32
76;47;56;79
28;64;79;32
68;47;70;63
40;71;32;72
63;32;56;87
47;40;87;32
64;47;68;47
40;79;32;72
79;48;79;32
68;61;64;63
48;87;32;64
95;36;72;55
52;95;40;78
55;64;79;64
95;44;80;95
54;64;93;48
68;79;44;76
95;48;68;87
64;95;56;64
95;40;88;63
52;95;79;52
94;44;76;63
52;95;48;84
95;40;84;63
64;95;52;92
55;72;95;48
90;36;76;95
36;86;63;48
84;32;72;95
44;76;79;64
95;44;95;46
68;55;64;87
46;64;79;44
76;71;48;82
77;44;79;40
79;32;64;63
40;79;39;64
63;64;61;40
79;63;48;87
36;87;40;95
32;76;79;40
52;79;32;76
79;40;72;79
32;76;63;64
91;40;92;52
64;47;64;87
40;68;63;52
95;36;68;63
48;87;47;48
95;40;68;79
40;92;40;64
95;32;84;63
64;95;52;92
95;68;79;72
61;92;63;76
52;86;60;94
62;86;63;76
95;64;95;52
86;52;84;40
76;59;72;79
72;63;68;40
72;47;68;79
64;63;64;79
64;63;72;79
64;63;64;63
64;63;64;79
64;63;64;79
48;79;48;95
48;87;48;87
40;79;48;95
64;79;64;87
64;79;52;95
48;95;44;72
63;64;79;56
87;36;84;36
64;71;64;87
64;61;72;63
64;55;68;87
64;71;72;95
64;87;64;95
68;79;80;103
64;111;64;111
68;95;72;108
64;111;64;111
64;111;64;103
64;109;64;111
64;111;64;96
70;88;79;84
95;64;103;52
94;71;88;87
76;87;76;95
68;95;76;111
64;95;64;95
52;95;52;103
60;64;87;52
72;95;52;95
48;95;40;76
79;64;79;52
86;36;68;95
36;95;32;86
58;40;68;87
32;72;32;56
87;24;56;79
36;74;63;32
76;20;64;79
24;64;28;44
79;38;60;79
32;64;61;32
76;32;79;79
63;32;79;63
48;63;48;86
79;64;95;42
68;95;52;95
79;48;95;60
64;95;48;88
79;76;95;44
84;44;72;87
44;95;48;76
103;48;76;95
52;95;79;64
95;48;68;95
44;80;44;85
87;52;68;95
48;80;79;44
86;36;64;95
79;64;77;48
84;47;64;95
36;78;87;36
68;87;36;76
63;64;63;64
87;32;87;79
36;86;79;40
76;46;72;87
79;64;79;48
90;32;68;63
48;63;40;79
36;64;55;40
79;24;76;46
40;63;48;79
63;48;84;28
64;37;64;79
32;76;47;48
87;32;48;84
79;32;86;53
64;87;36;72
87;40;72;63
48;79;40;78
63;64;87;63
64;95;64;95
79;48;80;79
48;84;79;48
88;44;72;95
48;92;48;80
95;52;95;48
76;55;72;95
48;84;79;40
80;63;64;68
95;48;92;57
64;95;40;64
95;40;95;36
80;52;78;79
40;80;63;48
87;36;64;87
40;64;87;32
64;39;64;79
28;64;63;36
79;24;56;63
24;64;63;40
79;32;87;24
48;79;24;64
79;24;56;78
44;52;79;32
56;39;56;79
32;68;63;44
84;32;56;78
79;36;79;32
64;79;48;86
47;64;79;32
64;71;62;40
84;61;68;79
40;84;40;76
63;64;79;40
84;40;64;95
42;72;79;36
72;62;64;63
68;63;48;87
40;86;40;84
54;64;95;40
86;63;64;95
40;86;52;72
79;48;94;44
76;52;64;79
64;95;40;95
36;84;91;40
64;87;63;36
64;79;44;95
40;72;32;64
63;40;87;32
68;47;36;79
79;32;68;39
44;79;36;79
38;64;46;48
79;20;48;70
63;32;72;47
48;63;32;76
24;68;34;64
47;36;79;32
68;39;48;63
40;79;32;76
32;68;24;64
63;32;79;32
68;63;52;79
48;87;36;76
40;64;79;40
52;87;32;78
55;64;79;36
72;63;44;95
53;68;77;48
76;87;64;95
87;64;95;40
80;79;64;95
79;80;87;48
80;95;64;109
63;80;71;64
95;71;64;95
48;95;48;94
53;84;57;72
79;64;95;36
84;44;72;46
64;87;40;85
32;79;36;64
63;36;79;38
56;79;36;86
32;64;79;36
52;71;20;64
63;32;78;24
56;63;32;52
79;32;48;63
32;68;24;40
79;20;52;39
44;63;24;66
55;32;64;47
40;79;32;52
79;36;64;47
48;79;48;79
46;64;84;39
52;79;40;68
79;64;87;38
72;87;48;95
87;40;84;49
64;87;48;95
79;64;63;68
95;64;92;95
64;92;95;76
102;75;68;111
95;68;92;71
80;95;80;111
64;111;64;111
73;84;100;111
71;80;111;48
88;95;72;103
60;92;95;48
76;95;72;109
87;64;111;48
92;60;52;95
36;86;40;72
95;40;64;95
63;48;87;40
84;32;76;63
40;95;40;87
38;68;63;48
95;40;64;63
32;79;32;72
55;64;63;32
70;32;48;79
63;36;79;32
72;32;64;79
32;70;61;36
76;42;48;87
78;40;95;36
80;63;64;95
40;86;36;92
63;44;89;79
44;92;56;64
94;40;76;95
61;76;87;40
84;71;48;95
87;64;95;62
68;111;64;92
95;52;88;79
64;95;48;92
79;80;93;44
76;79;48;86
87;68;79;48
84;48;64;95
46;72;95;48
84;63;64;95
40;84;50;64
95;40;64;95
52;68;87;36
64;63;48;87
77;52;87;44
64;79;32;76
63;48;79;32
76;42;40;79
32;68;46;56
87;32;95;32
80;47;64;47
52;63;48;93
47;64;55;52
87;36;64;79
36;78;55;52
92;32;72;79
44;72;47;64
92;36;95;40
64;95;48;87
48;95;52;95
64;95;68;95
64;95;64;79
72;79;72;95
76;77;80;111
64;110;52;108
60;94;71;80
95;64;109;56
92;62;88;48
80;63;76;95
64;79;64;63
64;79;64;95
48;95;52;79
64;63;68;79
64;63;64;79
64;79;64;95
64;95;64;87
64;79;52;95
48;95;48;95
40;95;44;95
40;95;48;95
40;95;40;95
40;95;36;87
48;79;48;95
48;79;64;95
40;95;48;95
48;87;64;77
64;63;72;63
72;63;76;58
76;63;68;55
78;54;76;63
76;55;76;63
76;52;80;62
76;71;72;63
72;77;72;63
80;79;76;95
64;78;52;88
103;64;111;48
84;63;68;95
56;84;79;52
88;55;68;95
48;84;95;64
103;48;76;95
62;76;75;64
95;48;64;95
47;72;40;72
63;52;79;32
72;63;52;87
64;87;48;95
40;79;32;84
32;52;63;32
79;24;64;41
52;61;48;63
32;76;24;64
39;32;63;20
77;63;32;79
44;40;87;32
84;32;64;63
40;63;48;68
79;24;68;47
44;87;32;68
79;36;64;79
36;76;41;64
93;40;72;47
48;79;40;84
61;64;87;40
87;61;64;95
48;95;40;78
63;68;79;64
95;52;72;79
64;95;40;92
48;84;87;72
95;48;80;95
64;95;48;95
48;100;48;80
79;64;89;95
64;77;64;95
62;76;79;48
86;47;68;87
44;76;63;64
92;40;72;79
40;80;55;48
84;36;87;63
64;79;63;64
95;40;95;32
68;46;48;79
48;79;32;76
33;68;55;56
71;32;74;28
64;39;48;63
40;79;32;70
30;68;61;32
79;24;68;63
48;63;32;79
32;79;32;76
47;64;79;79
48;95;50;64
95;36;76;60
64;95;40;84
79;64;79;44
84;48;52;95
40;94;87;64
102;56;76;95
68;64;69;80
103;64;84;95
56;92;79;68
95;52;88;79
72;79;64;87
64;95;48;95
54;72;95;40
80;79;64;95
44;92;48;84
44;86;40;72
47;68;63;56
79;40;87;45
64;87;36;76
32;79;32;76
79;36;87;48
87;32;91;32
56;55;48;63
36;79;32;64
63;48;71;24
68;36;36;79
39;56;63;32
64;37;64;79
32;64;55;44
79;46;48;79
40;87;36;87
36;87;40;76
55;64;71;48
86;63;44;94
36;76;63;52
93;36;76;87
64;95;40;95
48;88;79;64
95;44;88;95
64;75;64;95
93;48;95;52
76;63;64;94
71;72;71;68
100;63;64;92
95;64;95;48
80;71;68;95
52;80;95;52
84;55;76;79
48;87;52;95
40;95;36;87
36;76;47;76
44;72;63;40
87;32;76;39
64;79;32;78
47;56;63;32
79;42;52;47
52;63;32;71
44;64;55;48
63;52;79;32
64;79;48;64
79;32;77;47
48;87;32;79
52;44;76;63
40;87;55;32
68;44;48;87
24;68;79;40
56;79;32;76
63;40;79;36
87;36;80;32
64;87;40;86
36;72;61;72
52;76;47;68
63;64;63;52
91;38;76;87
48;94;40;84
63;68;87;48
93;60;68;63
68;95;44;94
44;64;79;79
48;95;87;48
68;95;48;95
40;76;36;64
79;48;63;40
80;42;64;87
55;48;95;40
80;32;78;79
36;72;71;32
78;32;64;79
38;52;55;48
79;32;68;38
56;63;40;79
32;79;24;79
32;77;28;68
47;48;63;32
79;28;64;79
32;87;24;70
39;64;44;48
79;36;79;32
78;36;84;92
32;87;32;64
95;32;64;79
44;95;40;76
77;36;76;63
48;92;49;68
95;40;86;79
48;95;40;76
95;48;95;53
68;95;48;84
95;44;94;44
76;87;64;95
48;95;48;95
44;90;54;76
79;52;95;40
80;87;40;92
36;76;47;64
63;64;79;40
84;40;64;79
52;87;32;84
32;70;36;44
77;36;64;79
40;64;87;64
85;32;56;79
32;68;43;52
84;24;64;79
47;40;79;38
56;63;36;78
79;28;52;79
32;87;36;64
87;38;52;79
32;87;38;68
93;44;64;95
44;84;87;44
64;63;52;93
44;76;63;40
95;47;64;95
52;64;95;55
72;70;64;95
48;76;79;64
95;46;72;95
48;102;44;68
111;48;90;71
64;95;58;64
111;48;84;71
64;95;48;86
95;48;84;79
64;95;48;80
79;48;95;40
72;44;64;88
63;52;95;36
72;42;64;87
36;64;71;32
76;32;64;87
59;40;68;63
40;79;24;48
79;32;78;38
56;55;40;68
55;48;79;24
64;55;32;64
79;32;64;63
24;68;22;40
71;16;52;47
36;63;32;68
55;40;87;24
52;79;32;79
55;64;79;32
64;79;46;52
95;32;76;53
64;79;40;76
63;52;87;40
76;63;48;84
95;48;95;48
80;95;52;72
95;48;95;48
80;60;72;95
87;48;80;71
64;95;48;86
79;48;80;63
64;87;44;76
79;64;95;54
64;71;64;95
63;72;95;48
80;79;64;87
52;68;95;40
68;95;40;70
87;42;68;63
40;87;32;64
79;32;78;47
48;63;40;78
79;32;77;47
48;79;24;68
63;40;78;34
52;47;36;79
47;44;79;39
56;55;36;72
79;44;64;79
32;84;32;70
79;32;64;63
48;79;63;36
72;44;48;87
55;68;60;52
90;47;64;79
36;94;40;84
79;40;64;63
32;79;61;64
92;36;76;79
48;87;40;92
71;64;95;44
80;70;48;88
79;64;95;50
72;95;63;64
94;44;72;95
48;72;79;48
64;95;48;95
71;40;78;79
50;64;87;40
68;55;64;95
55;64;79;48
80;36;84;87
52;64;79;36
72;44;78;79
44;64;47;64
79;38;48;87
44;40;85;32
64;55;32;64
63;36;79;45
48;63;40;79
47;48;79;40
68;38;36;76
63;32;79;24
68;36;40;79
55;44;87;32
64;55;48;79
54;64;87;32
64;59;48;95
71;40;95;40
76;36;92;53
72;63;40;94
54;64;52;48
64;87;36;87
47;72;79;52
92;52;90;52
64;95;64;95
71;76;79;48
88;40;95;55
48;94;40;68
95;44;72;79
44;95;40;76
87;44;76;87
46;64;63;52
84;32;84;79
46;72;79;32
64;63;52;87
46;68;61;64
87;36;48;86
71;32;76;45
48;63;32;76
55;48;79;32
64;38;32;70
77;32;52;63
32;79;20;48
79;16;87;20
64;43;36;76
55;44;71;55
40;79;40;79
63;56;87;36
64;63;52;92
55;64;87;55
64;79;48;72
79;64;95;40
76;63;64;95
63;68;87;64
88;56;64;86
95;44;80;63
68;79;72;95
63;72;52;76
95;56;68;95
32;84;79;68
88;61;68;95
56;80;63;72
95;48;84;79
64;95;79;68
95;48;76;95
48;92;52;64
92;48;48;87
79;40;84;32
64;55;36;68
79;32;79;32
64;55;36;72
63;48;79;39
48;55;48;79
32;52;55;40
73;39;48;71
47;52;63;48
76;36;48;79
32;79;32;64
79;33;68;79
40;79;32;76
79;32;84;55
48;79;48;87
63;64;95;40
68;79;52;95
44;95;40;68
79;64;95;52
72;77;40;68
95;48;84;63
64;79;64;95
71;72;95;64
84;52;95;63
68;95;64;95
52;80;54;72
95;44;72;87
40;76;63;44
76;36;64;79
40;79;48;86
79;40;64;95
36;84;38;64
87;36;86;36
64;55;56;79
59;52;79;38
68;47;64;55
48;63;64;79
40;79;48;71
40;79;48;87
48;71;48;79
32;70;45;68
55;64;63;40
79;32;72;32
64;45;52;39
48;55;56;79
36;79;40;79
32;79;32;84
32;79;32;64
79;36;86;36
72;47;64;79
48;79;44;95
40;95;48;79
48;95;64;95
48;95;64;87
64;95;64;103
64;103;64;102
48;110;64;110
52;111;64;102
52;111;64;111
64;111;64;103
64;103;72;111
64;95;64;95
52;103;52;88
55;86;63;72
95;64;95;48
80;59;72;95
54;72;79;64
86;55;64;95
55;64;77;64
84;75;40;72
79;52;79;48
84;36;68;79
63;64;63;44
76;79;36;76
63;64;63;48
79;58;48;80
63;64;63;48
78;55;64;87
32;78;32;78
79;40;79;63
48;93;36;84
79;40;95;70
52;89;40;76
94;44;72;95
63;76;63;64
93;52;48;88
87;48;76;77
64;95;44;64
95;48;92;71
64;95;48;48
95;44;76;87
48;86;44;84
79;64;95;48
72;79;52;88
95;59;72;87
48;95;63;64
95;52;64;95
44;76;63;64
90;44;48;95
40;92;44;52
84;47;64;63
48;79;54;40
87;32;79;40
64;63;52;79
32;79;55;32
68;47;40;79
47;48;63;32
64;30;72;39
48;55;32;79
42;48;79;32
76;32;52;63
36;87;32;74
63;40;79;47
64;55;68;79
44;64;87;48
86;63;64;95
44;72;55;64
93;54;86;55
64;87;46;80
95;48;64;86
79;64;95;48
80;79;76;79
64;95;48;94
79;64;100;63
72;95;48;88
95;64;72;95
63;76;87;48
76;52;92;63
64;95;64;95
48;95;52;76
95;64;95;44
72;63;64;93
63;64;95;40
68;54;80;87
58;68;71;64
92;44;72;79
40;93;32;72
79;40;64;87
79;44;87;38
64;63;36;72
79;48;79;36
64;63;28;56
79;32;68;37
52;63;36;79
77;32;91;32
68;36;68;63
32;79;32;76
63;36;82;61
44;68;52;64
85;63;76;63
64;63;64;87
40;84;79;32
88;40;68;79
40;93;50;52
95;32;80;63
64;95;40;84
95;48;84;63
64;79;44;64
94;44;64;95
44;95;40;76
92;46;68;79
48;95;40;80
95;52;64;95
44;76;63;64
95;40;72;63
48;79;36;68
87;55;64;95
36;68;63;48
79;36;44;79
37;68;42;32
68;36;68;38
48;63;56;79
44;36;71;32
68;39;48;79
32;64;30;44
74;39;40;71
63;44;76;36
56;63;40;70
63;40;79;32
52;63;64;79
47;48;87;32
64;55;72;93
71;40;86;46
64;55;48;86
79;64;79;52
86;52;64;95
77;64;93;71
64;95;64;86
95;64;76;95
64;95;52;76
95;40;72;95
48;94;48;72
95;44;68;95
52;76;71;48
84;36;64;87
40;95;48;91
79;48;79;48
84;63;64;92
63;64;95;36
68;63;52;76
79;48;79;52
86;55;56;84
79;48;95;36
68;46;48;78
47;68;55;52
78;24;52;79
24;64;63;48
79;20;52;79
24;70;63;40
68;47;32;54
79;34;48;79
32;68;55;32
70;32;48;79
32;68;47;40
72;36;40;79
46;48;79;79
36;86;48;87
32;84;55;56
95;40;72;55
64;79;52;92
61;80;93;48
72;61;64;90
63;68;95;48
80;50;68;95
63;64;79;64
92;40;68;95
60;68;63;64
94;36;68;95
42;84;55;76
93;32;72;87
60;64;79;64
92;32;72;95
44;72;54;68
87;36;64;87
47;76;63;64
90;44;48;87
32;72;47;52
79;32;76;63
32;68;32;56
74;28;72;79
47;48;79;32
64;28;56;79
42;60;55;44
68;45;48;79
32;64;63;32
68;39;32;68
47;48;47;40
70;42;32;68
63;32;93;32
64;79;64;87
63;72;46;68
87;36;64;87
71;52;95;64
88;79;64;88
79;68;71;64
92;44;64;95
44;92;55;84
95;48;88;95
76;64;95;79
64;95;56;80
95;44;68;87
48;95;64;92
79;64;95;63
64;95;52;76
95;62;64;95
40;92;36;76
87;64;95;52
64;87;40;80
87;40;92;61
64;95;44;64
95;48;72;47
52;79;40;76
63;64;63;40
72;55;76;71
38;72;87;32
76;63;48;91
63;32;64;87
32;86;32;64
79;48;79;38
64;63;48;78
87;40;64;87
36;86;52;64
86;61;64;95
40;92;40;72
79;64;95;40
68;87;40;72
79;64;95;44
68;95;52;84
79;52;72;79
48;95;48;86
95;64;87;64
88;48;88;79
64;79;64;95
48;95;54;68
95;48;95;48
80;79;64;94
52;64;79;52
84;55;64;93
52;68;95;40
64;63;48;95
40;64;71;40
76;55;64;86
63;68;87;44
76;55;40;72
63;64;87;36
64;38;52;86
47;64;79;32
64;63;40;70
71;32;74;63
52;87;32;56
87;32;87;32
64;55;48;78
63;72;63;52
78;63;48;79
55;68;87;40
72;63;68;47
64;63;64;95
48;87;48;84
49;80;63;72
95;64;95;48
92;44;88;48
72;79;64;87
64;95;64;103
48;103;52;84
52;88;52;84
60;80;77;64
95;48;88;63
64;87;64;87
48;95;48;94
40;95;44;78
40;91;36;84
32;87;36;64
47;64;63;52
79;40;87;40
78;32;68;55
48;63;48;79
32;79;32;79
24;79;24;68
39;64;47;64
63;48;63;32
74;32;72;47
48;63;52;39
44;63;48;79
36;79;40;79
32;79;52;79
32;79;48;79
32;87;48;87
32;87;48;78
38;84;44;80
38;84;40;64
63;68;63;68
55;72;59;48
93;40;84;62
64;79;64;79
52;95;64;95
64;87;64;88
79;76;79;72
100;52;64;95
63;72;95;48
84;59;68;87
79;64;95;48
84;44;64;95
44;80;61;64
94;63;64;88
79;64;95;44
76;59;64;95
40;94;63;64
84;47;52;87
55;72;79;64
87;44;95;36
64;71;48;87
44;76;32;64
78;47;64;45
36;79;32;56
79;40;79;32
64;45;64;87
32;64;47;52
78;46;48;78
47;64;79;32
64;63;40;85
55;64;63;64
93;32;72;93
36;68;63;64
87;32;76;95
40;95;59;76
93;55;64;95
63;80;95;52
80;95;64;94
87;68;106;79
68;93;64;103
68;88;71;84
103;64;88;111
52;94;79;80
103;52;76;109
52;100;52;84
95;48;72;95
40;84;87;64
88;63;76;95
62;76;95;64
92;44;64;95
40;64;87;44
68;63;40;79
63;64;79;32
68;46;44;87
32;48;71;32
64;39;52;77
63;20;72;47
40;55;32;78
34;64;63;40
64;47;32;76
47;40;63;40
70;20;48;79
24;87;39;64
79;32;78;63
40;63;40;87
58;40;85;87
32;84;79;64
86;79;64;92
79;72;95;64
84;63;84;95
48;95;48;103
60;68;87;48
76;63;68;95
48;95;60;64
103;40;95;63
64;71;64;95
63;72;95;56
68;77;64;95
71;68;95;48
72;52;64;95
40;92;46;72
87;36;84;79
40;87;36;76
79;40;72;87
46;68;63;36
72;47;52;85
47;64;87;32
64;36;44;87
24;66;28;68
63;20;56;79
20;56;31;52
63;12;52;63
28;64;55;40
72;37;44;79
39;56;47;48
74;63;52;87
32;64;47;48
71;38;48;85
55;64;63;48
76;47;80;95
36;92;40;80
87;40;89;55
64;95;48;95
55;72;95;95
52;92;63;84
95;52;76;100
95;79;80;95
52;92;60;72
111;64;103;48
84;79;80;103
52;95;56;72
95;60;64;92
87;44;95;79
64;95;48;92
87;48;95;71
64;95;48;88
87;48;80;55
64;79;40;76
63;64;63;64
85;63;44;78
63;64;63;52
79;39;52;87
32;72;24;76
63;24;76;63
32;79;32;87
36;48;55;32
64;36;77;36
48;79;32;64
79;36;86;36
64;79;48;76
63;64;87;36
64;93;40;76
79;64;95;36
72;40;64;76
79;64;87;44
72;77;48;84
63;64;79;52
84;71;48;87
79;48;95;52
72;79;44;84
71;52;95;57
64;79;64;86
79;68;103;48
76;63;64;95
44;80;63;52
84;52;64;93
36;84;36;76
79;48;84;79
48;95;47;72
87;44;64;87
40;68;63;64
87;63;36;68
84;47;36;87
40;70;87;36
64;87;40;87
32;76;47;52
87;40;74;47
48;63;32;44
87;32;79;28
52;63;36;64
63;40;63;32
60;41;64;79
32;87;36;64
79;32;78;87
32;95;36;72
87;40;76;87
44;76;63;68
95;36;86;87
48;80;63;52
76;48;84;95
48;95;52;92
87;64;95;79
64;95;48;100
79;64;101;63
68;102;48;88
95;48;94;95
48;95;58;80
95;52;76;95
48;103;52;95
48;80;79;48
95;36;76;63
64;79;36;72
79;40;72;55
52;79;36;74
63;64;63;36
72;32;64;79
32;87;32;64
79;55;52;87
63;64;87;36
68;39;48;87
32;48;77;32
64;47;36;79
61;52;87;32
64;31;36;79
28;70;55;64
79;28;64;87
32;70;38;64
79;63;40;87
47;52;79;40
68;63;48;93
63;68;79;64
88;44;84;95
44;80;63;64
88;46;72;95
40;92;60;64
94;79;64;102
79;76;79;72
95;52;72;109
63;80;87;64
88;52;64;95
63;76;87;48
76;63;84;95
48;95;79;64
92;61;64;95
54;84;95;48
72;87;64;95
46;64;71;52
86;42;52;93
46;68;63;52
84;55;48;78
79;48;87;40
68;47;48;87
32;86;55;52
72;55;52;79
40;64;79;32
64;63;40;79
63;36;79;32
64;63;48;86
63;64;63;52
79;71;36;76
87;79;52;95
40;76;55;64
95;44;95;55
68;63;52;93
61;64;95;48
76;95;48;92
79;48;95;48
80;71;64;80
95;48;84;95
64;95;58;72
95;48;95;71
68;95;48;88
95;79;64;100
87;64;111;56
72;95;52;103
71;80;79;64
95;48;94;60
64;79;68;79
52;95;64;95
48;95;48;94
40;95;44;80
40;80;36;68
47;64;71;52
79;48;87;64
79;48;79;48
79;36;79;24
56;63;48;79
32;79;32;64
63;32;79;32
76;28;68;20
48;55;48;63
36;63;48;39
44;63;48;79
32;79;36;70
39;76;44;64
63;64;79;64
79;64;79;64
87;64;87;48
95;44;76;87
52;95;64;88
58;88;62;80
63;80;79;72
95;72;95;72
95;64;109;64
102;52;95;52
76;79;72;63
64;95;64;95
48;95;48;95
44;95;48;88
44;95;40;86
44;84;40;76
36;79;42;64
47;64;63;64
79;48;87;32
87;36;86;36
64;61;36;78
63;48;79;32
64;36;72;79
40;68;63;52
76;63;36;70
79;40;79;36
52;55;64;79
47;64;63;36
64;54;64;79
36;76;47;64
85;36;48;87
32;85;47;64
79;32;87;55
64;87;40;95
61;64;84;87
50;64;63;64
84;52;84;95
54;76;79;64
95;58;72;95
56;80;79;64
84;52;80;95
48;92;46;88
95;48;92;95
48;95;48;84
95;48;80;95
40;95;48;88
79;52;84;87
48;88;59;76
95;44;68;95
63;64;95;40
68;63;64;94
36;76;36;84
63;64;76;79
52;68;55;64
79;46;44;76
79;48;59;48
76;79;32;76
79;40;79;61
40;87;32;64
79;32;64;79
32;87;47;32
64;47;68;55
36;79;40;79
47;48;85;47
40;87;36;52
72;61;32;76
79;32;87;63
48;95;52;72
93;48;84;95
40;84;95;48
80;75;52;92
87;48;95;52
68;95;48;94
95;64;109;52
80;71;84;95
48;88;71;68
95;68;72;95
71;80;79;80
110;64;111;60
72;103;52;88
79;68;92;95
56;80;87;52
86;79;48;92
87;48;88;71
64;95;40;68
95;40;95;40
72;63;40;68
79;79;36;84
62;64;79;32
68;63;44;87
32;76;79;63
40;68;47;64
79;63;36;64
77;32;68;47
48;79;52;79
32;79;39;64
87;32;79;79
48;79;32;80
63;52;79;48
95;40;76;55
64;71;48;76
63;84;63;64
86;49;64;90
63;68;79;64
92;63;64;80
95;64;92;95
64;102;60;64
94;68;92;79
64;103;64;100
70;84;62;88
95;64;92;79
68;79;88;71
72;63;64;103
40;84;79;64
88;95;52;86
95;68;79;64
95;79;48;80
95;64;79;64
92;79;64;95
71;64;95;48
80;52;64;95
62;68;79;64
95;40;86;87
48;68;55;52
82;79;48;95
36;68;63;48
76;79;48;87
63;64;79;48
76;46;72;79
40;87;36;76
79;32;64;87
63;64;95;46
64;79;40;76
87;36;87;79
48;93;40;92
55;84;79;52
80;55;72;95
79;64;103;52
72;95;52;95
48;80;48;76
95;48;95;77
64;103;52;96
79;64;92;95
75;98;71;92
103;64;111;71
72;111;52;109
70;80;79;64
92;70;64;103
48;92;95;48
76;63;86;71
48;95;48;94
46;86;79;64
95;64;87;64
95;64;95;48
84;63;64;95
40;76;55;72
63;68;95;40
80;44;64;79
48;92;32;87
44;64;87;32
52;63;32;70
61;52;79;40
76;39;40;76
55;32;79;32
64;79;36;70
79;44;64;87
36;79;55;48
93;36;84;63
48;79;48;80
87;77;76;95
48;95;40;72
95;48;95;48
68;95;52;64
86;87;48;92
79;64;111;62
72;95;64;92
95;64;102;79
64;80;79;68
88;69;80;95
56;80;87;64
88;63;80;71
64;95;48;95
71;76;95;48
72;63;84;61
64;79;64;95
71;68;71;64
93;46;64;91
79;64;95;48
68;71;63;48
76;42;78;63
48;63;64;79
32;87;55;48
78;47;64;87
55;64;63;36
68;47;56;79
63;48;71;36
64;79;32;68
79;39;64;71
32;87;44;87
46;72;55;64
85;54;44;64
87;47;64;95
47;94;62;68
95;48;76;63
64;79;48;92
54;76;79;52
76;79;44;80
79;48;95;48
80;54;76;95
48;80;52;76
95;48;95;71
64;95;44;88
87;52;95;48
95;40;94;79
64;95;64;95
55;80;58;72
92;63;84;87
48;95;63;52
84;95;48;80
92;50;48;95
54;64;84;79
40;87;36;84
79;40;95;44
64;79;40;95
32;87;55;48
95;32;87;36
64;63;44;76
63;40;79;36
68;55;40;79
47;56;55;52
70;79;36;84
79;44;87;44
76;36;68;87
55;64;79;48
76;79;48;68
82;77;44;87
79;48;87;40
76;95;48;95
52;76;95;48
72;75;52;95
48;76;95;48
92;52;68;87
48;95;40;84
95;64;87;64
94;63;88;95
48;95;44;92
87;48;100;71
64;79;40;95
71;64;84;79
64;63;80;63
64;95;48;64
79;48;95;52
95;40;90;32
72;63;64;79
36;95;48;87
32;86;36;72
47;72;55;64
63;64;79;64
79;52;79;40
84;36;76;47
68;45;68;55
64;63;64;79
44;79;48;63
40;79;40;87
40;87;48;87
64;79;64;79
68;63;64;79
48;95;48;92
40;93;44;89
48;84;44;86
46;86;44;84
71;68;79;68
61;80;71;64
63;84;63;80
63;80;71;92
53;94;52;84
44;95;52;84
52;84;62;80
95;52;95;44
90;44;84;55
76;63;64;79
48;95;48;88
60;76;77;64
95;44;95;44
95;40;92;36
80;40;72;53
64;63;64;79
48;79;48;79
48;79;48;87
40;79;48;87
40;87;40;87
48;63;48;79
36;79;36;79
32;87;32;72
34;79;32;70
47;64;55;64
45;76;47;64
71;64;79;48
63;64;63;64
63;68;79;64
95;40;78;87
48;92;40;84
79;64;87;48
76;79;40;95
63;72;95;44
92;52;88;95
64;95;64;103
60;84;111;64
80;95;52;96
95;64;111;64
94;87;72;111
64;103;64;111
79;72;111;64
80;95;48;108
70;80;87;64
104;48;84;87
64;95;48;76
95;48;84;95
48;95;44;84
95;48;95;48
84;63;72;95
40;95;36;80
79;64;79;36
84;40;64;79
36;79;48;93
36;82;47;68
87;45;72;61
64;79;32;84
63;52;79;40
64;79;52;79
40;95;55;48
68;95;40;95
40;72;79;44
68;87;48;94
54;84;95;58
72;63;64;95
48;95;40;84
95;48;95;48
76;95;48;72
95;40;95;71
64;95;52;72
95;79;64;109
79;68;111;52
84;79;84;95
64;111;64;72
103;95;64;108
56;84;79;52
100;52;80;79
64;95;64;111
44;84;79;68
95;71;72;84
95;79;64;95
44;80;95;40
72;79;64;95
63;64;95;46
64;55;90;44
64;95;36;72
95;40;95;40
64;55;68;79
32;84;39;76
55;52;79;36
64;63;52;79
36;79;48;76
79;52;79;44
56;95;36;72
87;55;64;79
40;95;79;40
68;95;40;92
63;64;91;63
64;95;60;76
95;36;95;87
64;95;79;72
103;60;92;103
79;80;87;80
111;56;96;111
85;76;111;76
108;76;96;111
68;96;79;96
103;64;111;95
72;95;64;96
108;64;92;111
56;96;71;84
95;80;87;64
80;79;64;103
44;80;71;64
103;40;86;79
48;87;64;95
40;80;36;87
63;64;79;40
86;36;64;79
32;68;63;38
64;55;48;79
55;64;63;32
91;44;68;79
32;63;40;78
77;36;79;32
68;63;36;70
79;36;87;36
64;79;32;56
68;79;32;84
79;64;79;48
76;59;48;95
50;82;79;48
72;63;80;79
48;103;44;80
95;48;95;52
80;79;48;92
95;64;95;64
95;63;80;95
64;84;95;68
95;72;95;80
111;64;102;64
84;95;64;107
71;80;87;80
95;72;95;68
108;56;84;87
64;95;63;72
95;64;95;52
80;87;64;95
44;72;44;64
79;64;95;36
68;52;36;82
53;64;87;32
64;95;32;86
55;64;55;48
68;63;32;76
63;48;79;36
48;79;40;76
77;36;79;32
64;79;44;84
36;68;63;48
85;40;68;63
48;87;47;64
63;68;95;44
68;79;52;92
36;87;63;64
79;64;95;48
95;48;95;61
68;95;48;84
79;72;95;36
95;44;80;95
48;92;79;72
95;71;72;102
71;84;79;80
103;48;84;95
52;109;77;72
101;63;64;80
95;44;88;79
52;95;48;68
95;48;95;48
76;79;40;64
87;32;87;40
52;63;64;93
32;87;63;52
87;36;68;79
32;87;32;82
71;36;84;45
44;79;36;64
79;40;72;63
32;87;28;86
47;48;87;32
56;79;36;68
79;32;79;63
44;93;36;76
79;32;87;47
52;63;72;79
32;95;63;48
72;55;48;87
63;52;95;44
72;61;48;94
55;84;87;48
72;95;52;80
95;64;95;63
72;95;64;100
71;64;103;63
80;87;48;102
71;68;103;55
80;79;52;102
77;64;109;52
72;79;72;95
48;95;44;68
84;95;46;72
95;53;48;76
95;40;94;63
64;87;48;68
93;47;64;95
36;95;36;76
95;40;95;44
72;95;36;64
95;36;95;46
64;63;48;87
79;36;91;42
64;79;48;70
79;32;80;61
40;79;36;64
79;63;68;79
32;95;36;72
79;48;95;44
76;63;52;84
79;64;61;72
93;63;48;76
94;44;95;48
68;63;72;95
52;72;95;64
86;71;64;80
95;64;111;48
88;71;88;95
64;76;111;64
88;48;68;103
48;76;95;60
64;95;52;64
108;48;95;60
64;79;64;95
52;92;79;64
95;52;80;95
48;103;52;80
95;48;76;95
79;52;87;64
88;58;76;95
63;64;95;64
95;40;95;40
64;63;80;55
52;84;63;40
64;79;32;82
63;64;79;32
56;55;52;79
32;78;32;70
79;44;87;36
64;39;48;79
32;68;78;38
48;79;48;87
79;40;87;40
68;95;36;64
84;95;48;92
55;76;79;48
95;40;95;48
64;63;68;95
79;64;95;52
84;79;48;84
95;64;92;70
68;95;64;95
48;95;64;95
52;103;48;103
63;94;64;84
63;88;71;80
55;92;55;76
77;72;77;64
79;72;79;68
79;68;79;52
95;40;94;40
78;54;72;53
86;36;84;32
68;55;64;63
52;79;48;87
32;86;32;79
32;87;36;78
32;79;32;76
24;79;24;60
47;56;63;48
55;64;63;48
63;48;63;48
79;24;74;32
52;63;52;63
40;79;48;79
48;79;56;72
42;76;55;64
63;64;79;48
87;48;95;40
87;40;84;40
95;48;92;40
86;40;76;36
68;63;64;87
40;92;40;95
40;95;44;80
59;88;59;86
52;92;48;72
58;80;63;64
95;52;95;64
95;48;92;63
80;63;72;77
52;103;60;64
76;95;44;95
40;85;95;87
48;95;64;95
48;95;64;95
63;68;87;68
95;40;84;79
52;76;63;64
93;44;68;95
32;76;79;64
76;79;48;76
79;32;87;36
64;55;48;79
53;48;79;36
72;79;40;70
79;32;87;36
68;79;40;68
87;36;87;36
68;71;36;80
63;64;63;64
79;52;95;40
80;55;68;79
48;95;59;64
103;48;80;95
44;109;44;76
103;48;94;63
64;87;48;80
111;48;101;60
72;79;68;90
87;64;95;64
88;79;64;103
75;72;87;64
100;71;64;100
79;68;95;64
95;55;92;95
48;111;48;80
95;52;111;48
88;63;64;95
40;92;44;76
95;40;95;63
64;95;48;72
95;40;92;55
64;79;40;52
72;79;32;76
63;48;87;45
48;79;36;78
55;52;79;47
48;87;32;87
36;76;63;36
64;79;64;87
32;85;79;48
95;36;82;63
52;95;44;95
79;64;95;64
95;77;64;95
95;64;95;64
84;87;64;94
95;64;111;52
84;87;64;111
60;88;95;64
92;79;80;94
87;72;111;64
92;111;64;100
111;64;111;64
88;87;80;111
70;72;103;56
80;87;80;103
71;72;95;64
84;87;48;84
95;48;95;78
64;95;52;64
103;48;93;44
64;79;64;95
63;64;95;48
76;63;76;79
48;95;40;92
55;64;95;55
64;95;44;72
87;32;76;95
48;64;95;36
68;79;32;68
95;36;79;63
48;79;40;79
79;40;93;40
72;79;36;72
87;48;95;50
64;95;48;95
55;64;95;48
84;63;72;95
48;95;44;92
63;72;79;48
88;48;80;79
48;95;44;68
103;48;95;48
72;79;64;95
87;68;95;58
64;111;44;80
111;48;92;87
48;95;52;76
92;87;48;103
44;94;93;48
84;62;64;95
48;103;40;72
95;40;86;71
48;95;36;64
95;40;76;71
40;87;36;72
95;32;95;40
68;63;32;64
93;32;76;32
52;79;24;48
87;20;56;79
20;87;32;70
79;32;79;32
64;63;32;72
79;32;87;32
64;79;40;82
71;40;87;40
68;63;72;95
63;48;80;61
64;95;40;78
95;48;95;63
64;95;87;52
88;77;64;102
60;80;111;64
92;79;72;95
48;84;63;76
111;48;94;79
64;92;62;80
111;48;95;64
68;95;54;72
95;54;64;103
46;72;95;40
64;71;64;79
56;95;60;64
84;57;44;92
60;88;63;64
95;40;89;48
64;95;36;72
95;48;87;36
64;63;64;92
40;52;63;40
87;40;72;79
32;79;32;79
63;40;95;40
64;47;64;79
32;79;36;76
47;56;79;56
84;38;76;95
54;64;79;64
94;44;84;63
52;87;40;94
55;68;95;48
72;79;64;95
40;103;52;72
95;48;95;52
84;71;72;103
77;64;95;64
92;103;68;111
48;88;60;72
95;48;80;95
64;95;64;103
71;80;95;64
88;95;52;96
95;64;111;48
80;95;64;111
52;92;52;95
63;92;75;76
95;48;95;95
64;95;69;72
95;71;92;95
56;84;95;64
84;93;52;68
86;63;40;84
63;64;87;36
64;79;64;93
32;87;32;78
61;48;87;48
76;79;40;86
87;36;87;36
68;63;48;76
79;36;87;45
48;87;44;36
64;79;24;78
47;64;47;48
93;32;79;40
40;95;32;72
95;48;87;40
68;79;52;48
64;95;40;88
57;64;63;64
95;48;64;95
36;95;48;68
103;52;95;48
68;95;40;76
95;44;89;79
48;103;68;64
92;95;64;103
48;95;95;62
68;95;64;103
79;72;111;52
96;52;86;79
48;103;52;68
76;95;40;92
50;76;92;95
40;88;58;72
95;40;72;95
32;92;63;80
79;72;87;48
64;95;36;94
36;72;63;64
79;36;87;36
68;63;40;79
32;76;55;64
63;52;79;32
79;36;79;32
87;40;79;40
87;32;86;44
64;63;44;79
32;68;87;32
72;42;76;79
32;93;40;92
40;88;63;48
68;79;68;87
32;95;44;76
95;40;95;48
84;71;48;76
95;64;95;48
80;77;48;80
93;48;95;48
95;48;86;54
68;79;64;95
48;84;79;64
95;36;95;63
72;79;52;95
48;80;63;68
79;64;87;64
95;48;95;55
76;95;40;80
71;64;95;48
94;40;76;47
68;63;64;63
48;87;52;79
40;87;36;76
47;64;63;44
79;40;79;40
87;36;79;32
87;24;87;32
86;32;76;47
48;79;48;79
32;87;32;87
32;76;61;64
79;64;79;40
95;40;95;48
95;48;95;44
95;44;84;44
64;79;52;87
48;95;48;89
46;84;48;64
87;64;95;64
95;72;95;68
95;68;103;64
109;52;103;58
94;70;80;93
64;109;52;76
103;64;111;64
111;64;108;56
95;56;80;63
64;95;64;95
60;94;52;76
87;64;95;64
108;48;92;63
64;95;48;80
95;48;95;52
64;95;44;64
95;36;80;44
48;95;36;52
64;87;24;64
63;48;79;32
40;79;32;64
63;32;52;79
16;76;47;56
79;24;79;47
40;79;32;79
61;56;79;32
76;46;68;63
40;87;47;44
64;95;44;68
87;54;76;79
48;95;71;64
95;48;84;95
56;76;79;68
111;64;111;66
64;100;79;76
95;48;103;68
80;95;64;110
79;80;111;58
76;95;76;95
64;111;56;68
88;87;56;96
87;64;111;60
88;79;64;101
71;88;95;64
98;62;72;95
40;95;60;64
64;95;55;64
87;53;68;95
32;86;77;48
86;44;78;95
48;64;95;36
68;93;36;64
95;32;79;46
48;95;32;64
78;63;64;79
24;86;32;52
68;79;36;79
24;72;47;48
87;28;76;36
40;79;28;48
68;38;52;39
52;63;32;76
79;32;87;54
48;95;59;56
95;44;92;71
48;79;52;95
60;80;79;64
95;44;94;63
48;95;63;72
95;63;64;103
36;94;87;64
95;79;80;95
71;72;95;64
88;95;52;80
95;64;111;52
76;95;52;72
95;48;86;79
40;95;56;76
79;68;95;40
72;95;40;76
79;48;95;36
64;95;40;76
95;32;84;47
48;79;48;79
28;70;63;52
79;32;79;55
36;87;32;52
63;44;79;24
36;79;36;48
70;28;76;63
40;63;32;68
47;48;79;32
36;87;28;68
47;64;79;38
40;79;63;64
84;40;64;95
60;64;79;64
84;79;64;95
79;52;95;44
64;95;52;84
87;68;109;44
84;63;64;102
95;64;95;58
64;95;64;108
87;64;111;64
88;95;76;92
79;72;84;87
48;95;79;52
72;79;68;95
40;95;48;64
78;61;68;94
50;68;79;48
95;36;78;45
56;79;32;78
63;52;87;32
68;61;52;87
55;64;87;32
64;63;48;64
79;32;79;39
48;79;32;68
79;32;52;63
32;79;20;44
79;24;79;36
48;63;44;64
79;32;68;45
32;79;32;48
87;32;72;63
32;87;32;78
44;76;53;64
79;48;87;36
64;87;40;80
79;48;72;95
32;95;44;64
87;48;95;44
86;46;72;95
32;95;63;64
68;95;63;72
95;44;95;58
84;95;64;102
62;92;111;64
80;79;80;95
48;95;44;68
68;87;55;68
95;64;95;40
64;93;47;68
87;40;93;55
48;79;61;64
87;48;95;36
48;79;48;79
37;78;63;32
48;79;32;79
36;56;71;40
79;24;79;28
64;39;52;55
40;79;32;72
38;52;63;40
77;32;64;32
68;47;48;63
32;76;38;64
63;48;79;32
76;36;48;79
44;72;63;36
52;79;32;77
47;64;79;79
32;76;79;64
86;60;70;95
60;86;54;80
79;64;87;52
94;60;72;95
36;90;95;48
68;87;64;103
48;80;79;64
95;64;95;64
103;52;95;48
95;48;94;48
88;52;68;79
64;95;48;95
46;68;95;48
91;44;68;95
40;72;79;64
95;48;95;62
76;40;48;86
55;52;63;64
79;40;79;32
48;79;32;64
63;40;63;32
48;71;24;68
31;56;63;24
36;79;28;56
77;32;63;20
40;61;40;79
16;68;63;32
76;47;40;79
20;68;63;32
76;63;52;78
39;68;87;44
48;79;47;68
79;52;80;71
40;79;52;72
95;48;95;48
64;79;44;92
79;64;95;48
64;93;48;92
87;72;84;79
48;95;63;76
95;64;111;79
48;108;63;68
95;64;110;77
64;103;63;72
95;48;95;61
52;79;68;95
42;92;48;64
95;40;68;93
32;64;55;40
48;79;38;68
79;40;87;39
40;87;32;72
79;40;84;63
32;79;79;36
76;55;60;79
37;64;79;32
76;39;64;63
32;79;32;64
63;48;79;32
40;79;32;70
31;52;47;32
40;79;28;64
47;64;63;32
52;79;44;64
95;44;87;52
64;95;40;76
63;64;95;40
80;63;80;71
48;95;55;52
72;87;48;95
79;64;111;48
76;95;52;80
87;64;95;48
68;87;54;80
79;52;72;95
40;95;48;84
77;64;95;58
80;71;64;95
48;84;44;80
55;76;55;64
79;64;79;48
95;48;95;36
93;36;87;44
94;36;87;32
78;47;68;47
48;79;48;79
32;76;36;79
42;72;32;64
63;56;63;72
63;64;63;48
87;40;87;63
68;53;64;77
40;95;40;95
36;95;44;84
44;76;47;48
79;64;79;52
95;48;95;40
88;44;80;36
86;46;76;32
86;40;76;32
76;46;72;32
78;36;76;36
64;63;64;79
40;92;40;76
63;76;63;72
71;80;71;64
79;72;79;80
79;72;79;64
87;72;87;68
95;68;95;48
103;48;95;44
95;48;95;48
95;64;95;48
95;44;94;54
56;92;71;64
95;40;92;32
64;77;48;95
55;78;63;52
87;32;87;63
36;84;63;64
93;36;92;55
64;79;40;80
47;68;95;36
48;79;32;76
55;56;77;63
64;87;36;70
63;48;79;79
36;86;63;52
79;79;40;80
79;44;94;36
68;87;48;76
87;48;86;40
48;95;64;94
95;64;103;44
72;95;48;80
95;56;92;87
52;95;58;68
103;48;103;44
72;95;64;80
95;54;80;79
48;95;46;72
103;47;80;63
64;95;44;68
95;63;76;95
44;95;40;64
87;63;56;92
36;84;63;48
88;63;64;95
32;80;79;36
80;47;68;63
40;95;36;68
87;38;79;63
32;87;32;64
79;55;52;87
32;76;63;32
72;55;40;79
20;68;79;32
82;45;68;63
32;93;32;68
63;64;63;56
79;36;52;87
55;56;78;53
36;80;55;44
72;95;32;78
55;64;95;45
76;63;64;79
36;95;48;84
87;40;76;95
40;92;32;68
95;52;95;40
72;95;48;68
95;44;64;79
56;95;54;72
95;44;64;93
36;101;63;48
94;63;72;79
40;95;55;68
95;68;79;68
95;48;95;44
64;79;44;84
59;64;95;52
72;79;40;76
79;52;72;95
38;64;95;32
76;63;64;95
47;76;63;64
84;63;64;92
79;48;84;63
40;79;48;87
79;36;84;63
40;91;40;52
78;47;76;63
32;79;40;78
63;64;79;32
64;79;48;76
95;40;84;44
64;79;48;95
61;52;64;93
32;95;48;95
40;95;59;80
95;64;95;64
95;52;72;95
48;103;63;64
95;48;95;52
80;79;64;100
95;52;95;54
68;95;64;76
95;48;95;52
64;95;52;76
95;48;95;40
64;79;52;80
63;68;87;52
87;53;78;95
44;92;48;68
95;40;87;79
48;95;44;86
63;68;95;63
64;79;40;90
44;72;95;40
48;95;61;64
87;40;80;63
64;79;56;87
32;95;36;78
95;32;86;46
48;79;44;64
79;52;87;36
70;63;48;92
47;72;87;40
70;71;64;93
87;44;80;79
48;94;44;68
94;53;80;95
40;88;95;48
92;63;76;87
48;95;48;68
86;48;72;95
36;92;79;48
88;62;80;95
48;111;57;72
103;52;80;95
48;88;87;48
68;95;56;68
95;58;92;95
40;95;79;72
95;58;95;87
64;95;64;95
44;86;95;48
80;63;64;88
47;80;63;64
92;40;68;79
36;93;48;76
63;68;87;32
68;63;40;64
63;40;79;48
79;37;56;79
24;73;36;64
55;40;79;63
32;79;40;76
39;64;63;40
78;39;64;79
24;68;63;36
68;79;32;84
43;76;79;36
64;87;47;76
79;64;95;48
84;79;76;79
48;95;48;80
95;48;94;63
64;95;79;48
68;95;64;68
95;56;103;79
80;87;64;100
79;72;64;68
103;52;68;95
48;95;95;52
92;55;88;71
48;95;52;92
79;84;79;64
94;63;72;95
48;95;62;68
95;48;68;88
63;68;91;40
52;95;48;76
94;63;76;63
40;87;44;64
86;46;64;79
32;84;53;36
76;61;64;79
32;79;61;48
84;47;68;63
32;87;45;64
87;32;79;44
40;63;32;64
55;52;79;20
56;87;47;44
80;47;72;55
48;79;48;87
32;87;55;76
87;40;95;48
87;55;87;52
64;95;52;86
79;64;95;40
76;71;52;95
95;48;95;48
68;95;52;84
79;72;95;48
84;87;80;103
48;100;48;92
79;72;93;64
64;95;48;84
79;64;87;48
84;63;64;95
40;88;87;48
64;95;71;72
87;64;95;63
72;79;48;87
47;64;95;44
48;93;40;68
79;36;95;40
48;87;36;72
63;56;87;32
48;87;40;79
32;87;32;64
79;32;79;36
32;79;63;48
79;47;52;87
36;56;87;61
64;79;36;80
55;68;61;48
95;40;87;36
64;87;40;64
87;52;68;87
36;84;63;52
78;63;78;79
40;92;59;64
95;48;95;52
88;62;64;92
95;52;103;48
84;95;48;88
79;80;95;64
95;48;109;48
76;95;52;94
57;92;79;64
92;71;76;79
48;95;48;72
95;48;95;36
64;94;47;64
87;55;72;63
40;87;63;36
52;79;56;79
36;76;63;32
76;55;64;63
32;79;40;87
55;40;87;32
48;79;32;72
79;32;79;32
48;63;24;68
79;28;79;28
52;63;44;79
24;87;39;64
79;40;87;71
32;79;44;87
38;68;95;63
64;79;36;86
55;80;95;44
52;95;44;84
63;68;88;71
68;87;64;87
40;92;63;48
68;95;71;68
103;52;64;88
95;52;111;48
80;95;52;72
95;64;111;48
72;95;52;68
95;63;86;79
48;95;48;84
95;48;95;36
86;40;48;86
79;32;64;87
32;95;40;68
87;40;64;63
40;64;87;32
52;79;55;64
79;32;76;79
24;79;32;79
63;56;79;32
64;63;48;79
24;79;47;40
76;32;78;33
40;79;47;44
68;30;72;39
32;84;47;40
76;46;52;79
24;79;20;64
47;52;87;36
64;79;36;84
55;72;55;68
95;52;95;71
52;84;63;64
95;64;95;48
94;56;86;79
48;95;63;64
95;48;111;48
84;55;64;88
79;40;86;79
52;79;48;80
95;47;76;95
40;89;71;64
95;55;68;93
40;95;44;80
75;72;79;64
92;79;80;95
46;103;77;68
95;40;72;87
36;92;44;68
95;40;76;87
52;92;55;68
63;52;93;62
68;79;48;93
36;92;63;40
76;63;64;79
32;95;55;48
78;47;48;87
32;87;63;40
76;47;56;79
32;93;55;52
87;47;76;63
36;95;52;52
90;63;64;95
36;95;40;64
90;55;68;95
40;84;61;64
86;95;64;95
63;80;87;64
103;48;95;48
95;48;103;63
88;66;84;48
86;63;72;63
64;95;64;95
52;103;48;95
71;80;63;68
87;72;87;48
94;52;80;44
72;63;68;95
48;95;40;76
71;68;79;40
95;48;95;36
90;40;84;79
56;95;40;84
63;72;63;44
87;48;87;36
93;36;93;40
84;36;82;32
79;32;68;63
48;79;40;79
38;78;32;73
55;68;63;52
63;64;79;36
79;48;87;32
87;36;86;61
72;63;68;44
64;63;64;95
48;95;40;92
46;86;63;84
79;76;71;64
95;72;95;64
95;64;95;48
103;48;94;44
88;52;88;40
92;44;84;38
80;63;64;63
72;79;68;87
64;95;64;95
60;94;63;64
95;64;95;48
92;71;76;94
55;84;79;64
103;48;76;95
40;94;40;76
95;48;84;79
48;95;40;76
79;52;87;62
48;55;78;53
48;79;48;72
87;32;70;55
40;95;32;64
76;63;70;63
32;78;79;36
36;86;63;48
79;20;56;76
63;32;56;79
36;64;79;32
68;63;64;63
32;87;47;48
84;40;72;79
32;92;36;78
93;55;84;79
48;95;52;68
95;48;56;95
36;94;87;48
84;79;84;79
64;111;54;64
103;54;108;52
68;103;79;64
111;64;102;52
76;95;64;84
95;64;111;48
68;111;52;72
101;69;72;95
48;104;52;68
95;63;52;84
79;68;95;48
84;63;72;79
40;84;79;44
76;87;48;92
44;84;36;64
86;32;48;79
43;76;63;40
80;45;44;79
28;72;63;32
52;76;39;48
79;24;84;63
36;64;63;44
79;36;56;85
61;64;79;32
68;32;64;87
36;76;60;48
79;40;68;87
36;87;36;76
63;64;79;44
76;63;40;91
38;78;95;50
76;79;68;95
40;95;40;88
95;59;72;95
48;95;48;64
95;48;86;79
44;95;48;64
95;40;64;95
46;80;63;64
95;64;103;57
64;103;48;64
95;48;95;40
80;95;64;95
63;64;79;64
95;44;76;95
36;94;44;76
79;64;87;40
76;63;52;93
32;80;95;55
40;95;40;84
47;79;79;40
72;79;64;87
36;80;87;48
87;36;87;55
36;87;32;64
79;39;77;32
52;79;32;64
63;48;87;32
70;63;70;79
40;95;40;78
63;64;86;63
68;79;48;95
52;84;55;64
88;79;64;95
40;95;87;48
68;92;63;68
95;48;95;79
48;103;52;92
79;64;111;79
64;111;64;100
79;84;79;72
102;63;92;70
64;92;95;64
92;52;92;71
64;95;48;76
95;62;72;95
52;80;79;48
86;55;68;79
48;95;36;70
79;64;95;36
64;55;36;76
63;48;87;32
64;79;32;64
79;24;79;39
44;79;32;64
79;37;64;63
32;87;32;68
79;36;56;79
24;85;42;48
87;36;87;32
64;79;48;95
32;95;36;68
79;48;95;40
76;55;64;95
52;68;59;48
95;32;72;63
40;95;63;48
95;40;93;44
52;95;58;64
92;48;92;52
64;95;79;64
94;56;88;63
64;79;48;76
87;64;108;48
80;95;64;102
68;76;95;52
102;44;72;92
79;76;95;64
92;79;64;84
95;52;64;95
44;95;71;64
95;48;92;38
64;95;53;52
84;47;64;87
36;76;63;48
72;62;64;79
28;76;79;40
78;55;52;87
32;84;63;40
74;55;72;55
36;74;46;48
79;40;87;30
56;84;32;64
79;55;68;63
32;64;63;36
68;47;64;79
32;85;47;52
79;55;56;87
36;78;62;44
76;63;40;95
53;87;71;72
94;54;72;95
46;88;95;48
92;79;84;95
48;103;56;68
92;63;76;95
52;88;95;64
95;87;80;111
52;111;78;68
100;79;92;87
64;111;64;92
103;70;100;78
64;108;71;68
111;52;101;63
64;103;52;72
95;64;95;44
72;95;68;95
46;86;95;36
76;79;48;68
90;32;85;47
48;87;46;48
72;55;56;87
32;76;95;54
40;82;32;68
79;48;79;36
64;63;48;85
44;64;79;38
48;86;63;64
95;36;56;95
40;80;63;68
95;40;95;52
72;79;72;95
44;86;87;52
84;54;76;95
48;95;71;64
88;79;88;87
48;109;48;76
102;63;80;95
56;84;95;52
68;111;60;80
103;60;64;80
111;64;111;64
92;95;68;100
95;64;95;64
100;79;80;95
64;109;64;111
63;72;95;60
80;95;48;90
79;68;95;54
72;79;64;95
63;84;95;52
86;71;68;95
55;72;95;44
64;95;63;64
95;44;76;87
36;94;79;48
95;46;68;87
40;76;71;64
95;44;95;44
72;71;52;95
44;92;79;48
87;79;64;95
44;80;76;48
80;95;48;95
55;88;95;64
88;63;72;95
48;103;79;64
109;70;94;77
64;111;52;80
111;64;102;62
80;111;64;92
87;80;111;64
102;95;84;111
56;92;103;64
100;87;64;100
109;64;84;95
52;92;95;64
110;56;84;95
48;92;95;64
88;79;64;95
79;84;60;64
88;63;64;79
40;92;77;48
84;46;68;63
56;79;48;82
63;64;63;64
79;64;79;64
79;64;79;48
95;48;95;40
93;36;93;32
87;36;79;32
64;71;44;79
40;87;32;85
61;68;63;64
79;68;63;32
76;46;64;47
68;63;52;87
44;95;48;95
44;86;55;76
95;52;95;44
95;44;95;44
86;48;84;44
80;55;68;95
64;95;64;95
64;107;52;103
79;84;79;64
111;64;95;68
111;68;111;64
111;64;110;68
108;64;102;52
106;56;95;95
80;79;80;79
80;79;64;77
68;79;64;95
48;95;48;76
79;72;79;52
95;48;95;36
87;36;84;32
85;40;78;36
76;36;68;28
68;36;56;39
56;47;48;39
64;36;48;39
52;47;48;63
32;52;79;24
64;55;64;63
32;87;63;40
72;47;52;79
32;84;79;40
76;55;52;95
44;72;87;40
76;63;72;79
40;95;36;64
95;48;88;52
64;95;40;68
87;63;52;94
62;76;87;48
80;79;80;95
52;92;87;64
103;44;103;52
84;75;80;111
48;103;52;88
79;64;95;48
88;54;72;63
64;95;63;48
80;63;64;87
36;90;47;64
95;36;64;95
44;82;79;44
80;61;52;95
48;76;36;64
80;63;48;87
47;72;79;32
64;84;38;68
79;52;95;32
80;47;76;47
48;95;55;48
87;40;87;32
64;87;32;52
79;32;84;32
48;63;32;64
78;44;64;63
36;79;55;64
79;40;76;47
48;87;64;95
46;78;95;52
102;52;88;95
48;95;52;80
95;64;111;52
80;79;64;103
62;96;95;64
84;77;72;111
64;102;52;84
95;64;108;54
72;71;88;95
48;106;71;84
111;64;79;64
92;69;80;95
52;103;52;80
95;80;111;48
80;103;52;72
95;56;103;40
76;95;48;90
63;76;95;48
94;63;68;95
40;93;77;76
95;68;92;75
48;90;87;64
103;44;76;87
60;76;87;64
95;48;93;63
64;95;64;95
55;68;95;48
48;91;79;64
95;52;80;79
64;95;48;76
87;64;95;48
64;95;79;80
95;64;71;64
84;71;72;95
52;88;79;80
95;55;88;54
72;79;48;84
95;48;88;63
64;95;71;52
84;79;48;95
79;80;111;60
64;103;64;103
71;88;95;64
72;111;79;76
111;52;102;95
64;96;87;72
110;60;102;78
80;95;64;100
87;80;94;95
52;102;95;68
109;79;84;111
52;109;64;80
95;64;111;48
76;79;76;79
44;92;93;79
48;88;79;64
95;79;80;95
54;86;60;64
95;64;95;48
72;95;48;84
79;68;95;48
80;79;64;95
54;84;44;64
95;40;82;87
48;95;40;64
84;44;76;79
48;84;78;48
76;79;64;95
54;95;71;72
111;48;76;79
48;95;95;64
88;79;64;100
95;64;80;108
65;92;95;64
108;64;111;64
84;87;76;111
64;103;93;76
111;72;104;79
72;119;64;80
103;56;92;71
64;94;95;64
107;79;88;79
64;95;52;64
88;77;64;95
63;84;79;40
76;79;48;95
53;86;40;64
95;32;84;55
48;94;63;48
95;40;79;34
56;87;36;64
79;42;56;79
36;79;42;48
70;63;56;87
32;78;42;68
79;48;87;32
70;42;78;95
36;95;63;64
95;48;80;71
48;72;95;48
95;52;64;95
79;68;95;48
92;79;64;72
111;64;103;52
84;95;72;88
95;68;94;69
68;102;95;52
94;77;92;95
64;102;52;76
100;95;64;92
95;80;111;64
102;79;68;111
77;80;108;79
64;101;54;84
111;64;103;70
80;95;64;103
60;88;95;48
100;48;84;95
52;95;87;52
92;52;88;61
52;94;52;48
78;61;76;46
52;95;44;48
93;36;95;32
76;79;64;84
63;64;95;32
84;40;64;79
40;84;44;64
95;40;95;42
68;95;40;72
87;64;95;40
86;63;72;87
48;68;79;44
80;71;68;95
54;88;95;52
100;63;84;79
64;92;95;48
100;75;72;103
62;100;95;64
108;64;110;52
84;95;88;109
52;111;71;80
111;64;104;95
64;96;111;64
110;95;92;111
64;117;64;88
111;64;100;103
64;111;56;98
95;80;111;52
88;79;72;95
52;95;48;72
90;79;64;95
54;76;95;44
72;79;40;76
95;52;95;40
84;60;68;79
48;92;71;48
76;46;32;79
63;52;79;36
64;63;52;79
32;76;79;32
68;55;48;87
42;72;79;40
95;32;87;44
64;95;36;64
87;61;64;95
44;80;95;48
80;79;84;79
64;102;87;64
88;87;64;100
95;64;92;111
78;92;111;68
106;60;72;88
111;64;92;95
64;98;68;68
96;95;68;111
71;80;111;64
68;111;56;102
87;64;88;95
56;76;95;48
84;63;92;87
64;95;65;64
103;44;95;79
52;93;48;80
87;64;87;77
48;88;87;64
94;77;64;94
63;68;63;64
95;44;95;48
84;63;64;79
48;87;32;68
44;64;47;64
79;32;84;32
68;47;56;47
64;46;64;63
52;79;32;87
32;68;79;48
87;32;68;42
76;47;72;79
64;63;64;63
52;87;56;95
48;92;55;72
95;64;95;64
95;48;80;63
76;63;72;95
64;87;68;79
64;95;64;103
52;95;52;95
48;100;48;106
87;64;103;48
103;52;95;79
84;71;84;63
80;71;76;95
64;95;68;79
64;95;48;95
58;80;79;64
95;52;95;63
88;62;76;61
76;55;68;95
64;79;64;79
64;95;48;95
48;80;55;68
95;64;95;64
95;44;95;36
94;40;87;63
86;40;78;40
72;47;64;87
48;79;40;87
44;76;55;52
87;52;79;40
94;48;86;63
76;53;72;47
72;55;64;95
64;87;68;63
72;77;68;95
68;79;72;71
72;79;64;111
64;103;48;92
95;64;108;52
92;95;64;88
95;64;110;79
80;111;80;111
79;84;87;64
108;79;96;95
64;110;95;68
111;69;108;66
80;87;80;95
52;111;52;76
95;64;79;48
92;95;72;95
52;72;95;48
72;79;52;86
79;64;95;36
68;79;52;95
50;80;40;44
84;32;68;63
48;87;32;68
79;40;79;24
64;71;36;40
68;47;52;63
32;52;63;32
56;79;48;87
55;64;63;36
68;79;52;87
50;64;79;36
72;79;76;71
48;84;79;56
95;44;72;79
48;64;79;40
72;79;72;95
44;95;79;62
64;95;56;68
111;52;111;69
72;95;52;100
95;68;100;95
56;88;95;64
100;95;68;80
101;95;68;103
56;95;68;64
110;64;100;63
64;95;44;84
79;80;95;64
109;48;84;71
64;95;36;88
79;64;79;48
94;52;68;87
44;87;52;64
95;48;94;47
64;95;40;48
76;63;68;71
36;76;79;36
68;55;64;79
36;70;47;48
70;38;64;79
39;78;32;48
76;47;32;64
79;48;86;47
44;79;55;64
95;64;92;71
52;95;48;95
63;80;79;48
95;48;68;95
63;80;95;64
109;52;48;95
79;88;69;64
111;48;100;69
68;95;52;80
95;79;72;111
64;88;111;70
72;102;64;108
79;80;95;64
64;109;80;111
60;92;79;64
84;79;64;95
56;80;79;64
103;48;76;95
55;80;63;64
80;79;48;84
79;64;87;36
87;63;64;95
63;68;79;61
48;85;53;68
95;44;87;36
72;55;64;79
40;68;87;32
64;79;48;84
63;64;93;32
64;79;40;87
63;64;95;55
64;79;64;95
44;80;95;48
80;63;84;52
64;95;63;64
95;48;92;40
76;79;64;94
63;72;95;48
80;95;64;86
87;64;103;48
80;59;84;95
64;111;52;88
95;64;102;63
72;95;64;102
79;84;60;68
103;52;92;63
68;102;79;48
80;44;76;79
52;95;48;64
85;55;64;95
62;64;95;40
84;79;64;95
44;95;44;64
80;79;72;87
44;95;63;48
72;44;64;79
40;95;44;48
68;63;48;87
47;68;63;32
64;79;64;55
44;79;36;48
95;28;72;61
48;63;64;87
63;52;95;36
76;87;52;76
79;52;95;40
92;53;64;95
60;68;79;64
95;48;94;63
68;95;48;80
95;64;111;48
84;95;64;94
95;64;111;56
88;63;92;63
80;95;76;94
95;60;84;95
64;111;64;92
95;72;111;64
100;71;100;87
72;111;64;92
95;72;87;64
88;87;84;95
64;84;95;64
80;79;64;95
61;72;95;55
80;87;64;95
63;72;44;68
79;64;95;40
92;47;64;86
79;52;84;55
64;93;40;72
87;36;72;63
44;84;36;64
79;44;32;68
79;64;79;36
87;44;76;55
52;63;64;95
63;64;95;40
88;71;48;94
63;76;79;64
95;52;95;71
52;92;63;64
111;36;95;48
102;71;94;71
72;95;66;64
94;59;80;87
56;95;72;111
71;88;111;68
111;64;84;111
64;111;64;117
93;72;95;64
111;64;100;79
76;111;64;80
111;64;92;93
64;108;74;64
111;64;102;54
72;110;60;64
84;87;64;95
71;76;95;48
84;95;48;95
71;76;95;48
80;95;48;88
79;64;95;40
68;95;40;88
79;64;95;55
68;87;64;95
48;95;44;64
95;40;92;46
64;95;32;84
79;68;87;40
86;63;40;76
87;48;85;61
64;87;55;64
80;79;72;95
52;80;63;64
95;63;72;87
56;76;111;44
84;95;64;103
79;72;95;95
64;100;52;84
95;72;95;80
107;52;94;60
92;64;80;79
84;79;72;79
72;95;68;94
71;88;62;84
95;64;95;52
108;48;101;48
101;48;92;61
88;52;76;61
72;63;64;95
64;79;52;95
48;95;48;95
44;90;40;86
63;76;63;70
95;48;95;40
94;40;84;63
84;46;80;47
68;55;64;63
68;53;64;63
56;79;40;95
46;72;40;79
55;68;55;68
87;48;87;36
94;40;84;46
87;40;76;47
64;63;52;95
48;95;40;80
79;68;71;68
95;48;95;48
95;48;92;53
95;48;92;48
95;44;95;48
95;48;94;44
95;48;92;63
92;48;84;55
84;55;80;79
84;62;72;71
76;63;80;87
72;87;64;103
75;68;111;52
84;79;76;95
52;80;111;40
76;95;48;80
95;64;103;44
80;95;48;95
79;76;95;48
88;49;95;40
68;95;44;64
95;36;44;87
47;64;79;32
64;63;52;63
36;64;63;32
56;63;40;79
53;60;79;63
44;64;63;68
79;48;87;47
52;79;48;92
63;64;95;36
64;79;52;95
48;70;95;40
72;71;64;95
71;64;95;63
56;80;87;64
103;52;68;95
52;68;95;48
92;87;80;95
60;92;95;64
103;52;76;95
60;92;95;64
108;71;76;109
52;111;52;92
95;64;111;77
68;111;64;108
87;72;111;52
92;75;88;71
68;95;71;48
76;79;64;95
63;80;48;64
95;48;91;55
56;93;63;44
68;63;68;87
46;76;87;32
64;79;40;84
79;64;87;32
64;87;36;76
79;48;87;55
48;95;44;84
79;48;95;40
64;79;48;95
52;68;95;38
68;79;48;94
79;78;79;48
72;79;52;94
79;64;95;52
64;95;48;92
95;76;95;56
72;109;64;100
79;80;111;56
72;87;56;80
111;64;111;48
94;95;92;87
68;109;64;84
95;95;80;95
64;111;87;64
88;87;68;111
64;84;111;52
88;95;76;95
56;80;95;48
76;95;72;95
62;80;52;52
95;36;76;79
48;92;52;36
64;79;36;68
79;48;93;47
52;95;40;94
63;76;79;64
76;87;52;95
63;68;79;48
64;63;48;95
63;48;93;38
64;87;64;87
55;64;95;36
68;79;48;92
79;68;95;40
64;79;48;95
63;76;95;44
88;87;64;95
63;80;95;44
72;87;52;84
95;64;111;48
72;95;52;88
95;64;100;79
64;84;95;52
88;48;52;76
111;48;84;79
64;103;48;88
95;76;111;52
96;48;80;95
71;64;95;64
108;62;56;64
103;56;68;95
56;68;103;40
68;95;64;95
63;80;63;64
103;44;76;63
64;87;52;87
79;64;95;48
92;40;95;54
64;63;32;72
87;48;63;40
95;36;64;63
40;86;36;52
79;47;68;63
44;72;63;32
84;45;52;79
44;78;42;52
95;32;84;40
56;93;48;84
63;72;95;44
94;44;95;63
64;77;64;95
55;80;79;64
100;71;76;87
64;111;63;72
95;64;111;64
102;64;72;95
48;95;56;92
95;48;107;68
80;111;64;102
95;68;109;56
72;95;64;102
95;64;95;48
96;79;64;108
77;80;87;64
103;48;80;79
64;87;56;64
103;46;95;46
72;95;48;64
95;40;84;47
64;87;32;78
79;64;79;36
72;44;68;79
36;95;36;76
95;40;87;32
64;87;40;87
54;64;47;52
95;52;95;40
78;61;68;79
32;95;40;64
95;48;85;79
48;68;95;40
84;59;52;95
63;68;95;48
95;54;48;64
95;48;95;40
80;32;76;87
52;72;95;48
88;63;84;95
60;84;95;48
92;58;95;95
64;111;64;92
95;64;87;52
80;87;64;111
87;76;111;64
88;95;80;111
79;88;111;64
92;87;92;95
64;94;68;64
100;52;80;95
52;80;79;64
84;63;76;79
52;95;63;44
84;44;72;79
48;90;36;68
79;40;72;47
52;87;32;64
79;44;86;36
64;63;52;79
32;78;55;56
95;40;78;79
36;85;32;64
87;40;76;63
40;64;79;32
76;60;64;87
63;64;95;40
86;45;68;95
40;95;64;93
79;64;95;71
64;95;60;80
95;48;84;87
60;76;103;48
88;79;48;84
95;64;109;56
84;79;92;87
64;111;64;84
111;64;108;70
76;111;76;111
64;80;95;56
72;95;64;84
111;64;95;60
76;103;64;111
76;84;111;52
76;111;48;88
95;64;103;71
64;86;48;72
95;48;76;95
55;72;95;40
80;79;72;95
40;95;36;80
87;64;95;44
64;87;36;80
87;48;80;79
36;95;36;72
87;48;87;53
52;87;36;87
63;52;95;39
64;95;40;87
79;64;79;48
88;71;76;95
56;64;103;61
64;87;64;95
64;94;79;48
76;95;48;95
95;72;95;60
72;95;64;111
75;68;102;87
64;100;95;68
111;56;108;79
72;111;64;108
111;72;119;64
88;111;68;117
95;84;111;64
100;77;100;77
80;111;64;84
111;64;103;68
111;64;94;95
64;88;103;52
100;79;88;87
64;103;64;95
64;103;48;84
79;72;79;64
95;64;95;46
84;54;76;61
76;63;64;79
52;79;48;87
64;79;64;63
64;79;64;79
64;87;52;79
64;79;64;87
40;95;44;95
48;95;44;95
46;88;44;86
79;64;95;48
95;48;95;44
95;44;94;40
95;44;84;79
76;57;72;71
72;63;72;95
48;95;48;95
54;86;48;88
71;80;79;68
79;68;95;68
111;64;100;54
94;56;84;95
64;95;52;95
60;84;79;72
87;76;95;68
95;64;95;76
103;64;103;64
102;48;94;87
76;79;64;95
64;95;64;95
64;95;48;88
52;84;63;68
95;48;95;36
84;46;68;63
64;63;56;79
44;87;32;79
44;64;47;40
87;38;64;87
61;64;87;48
95;40;78;79
48;95;44;72
95;52;90;79
52;95;48;88
95;52;80;95
40;95;48;86
95;64;95;48
76;95;44;86
95;64;100;48
64;95;64;95
54;80;79;52
76;87;72;95
64;88;63;80
95;64;88;71
68;111;64;92
95;68;94;79
64;109;64;80
95;58;92;79
68;95;48;64
111;54;94;48
84;87;64;80
95;44;92;63
64;95;48;72
95;48;79;52
95;40;64;87
63;52;93;44
64;95;48;95
71;64;95;36
76;63;48;70
79;52;79;48
95;36;64;87
61;64;94;32
80;47;40;68
63;48;84;47
64;71;48;93
32;95;36;64
95;48;86;79
54;68;95;40
86;32;76;95
36;93;71;48
95;40;68;94
36;88;36;95
71;64;95;44
64;87;64;95
52;76;95;87
52;84;79;72
111;64;102;93
64;111;72;95
68;111;64;100
111;76;111;64
100;68;76;108
95;80;106;70
80;111;64;64
111;64;94;79
72;95;48;84
87;68;103;48
92;79;64;76
95;40;88;79
64;95;48;52
95;44;88;61
64;63;48;86
63;68;95;36
76;55;64;87
32;64;79;40
78;47;48;87
24;84;55;64
95;32;64;87
32;79;44;64
95;32;72;63
40;87;40;86
63;64;95;32
88;40;72;87
48;90;40;68
79;48;92;44
68;79;64;78
95;52;72;95
48;72;71;64
84;95;64;103
87;80;111;52
72;103;76;111
54;88;79;48
76;95;64;111
68;84;111;64
88;95;64;111
68;94;111;64
92;93;68;111
64;88;95;64
111;64;94;79
72;111;64;103
52;94;79;72
111;52;80;87
52;95;50;80
95;68;95;40
64;95;48;95
61;76;87;36
68;87;52;72
95;48;95;44
64;79;56;95
40;80;47;64
87;36;84;38
68;63;56;95
32;85;63;64
95;40;64;95
63;64;95;48
92;55;48;87
44;80;95;48
80;79;64;95
63;68;95;48
72;79;64;92
57;84;87;52
95;60;92;87
72;95;52;80
111;44;100;79
64;111;68;80
111;64;104;95
68;64;111;56
96;55;94;79
64;95;79;72
109;60;103;79
64;111;64;101
95;88;79;64
95;52;100;52
80;71;84;87
48;95;46;76
95;48;92;62
64;92;44;72
95;48;72;95
36;90;60;64
95;32;88;61
48;95;38;68
79;48;76;77
48;64;95;36
64;79;64;79
36;95;32;72
95;48;87;63
52;95;40;86
79;64;87;44
76;63;72;87
48;92;52;48
68;95;40;95
63;68;95;48
64;95;44;92
87;64;108;60
64;95;56;84
111;64;88;95
68;80;111;52
72;109;52;92
79;76;87;68
95;60;94;87
64;111;64;102
87;88;64;80
111;64;106;57
76;103;64;76
95;48;95;55
64;94;48;76
95;64;92;52
64;87;46;68
91;52;76;79
40;84;55;48
68;63;64;79
36;76;44;52
87;36;63;40
87;32;52;78
63;48;79;32
52;79;32;56
79;32;86;24
68;61;48;79
24;78;46;52
95;40;87;36
79;36;64;63
64;63;48;95
36;72;47;52
95;38;68;79
64;95;44;87
61;72;87;64
95;44;80;55
80;79;64;95
40;88;87;64
103;40;88;79
64;103;52;88
95;64;103;79
68;95;64;103
77;64;111;52
68;95;64;109
68;88;79;52
72;95;68;111
52;88;75;64
111;48;84;71
76;79;64;95
48;88;61;80
71;64;95;48
93;46;68;63
72;63;64;79
48;93;36;86
36;86;46;64
79;48;95;32
85;53;64;79
40;78;39;64
95;32;64;87
59;64;95;44
78;47;52;79
36;84;32;72
63;52;87;32
64;79;36;84
47;68;79;48
68;79;52;95
52;86;62;64
103;48;95;44
72;63;48;80
95;64;103;52
84;55;64;95
44;88;55;72
103;44;86;79
64;111;52;84
95;48;96;79
64;109;64;111
70;80;111;69
64;111;64;84
111;64;106;79
68;111;48;102
87;72;104;71
64;111;52;92
111;64;102;79
64;111;52;80
111;48;92;79
64;111;60;72
107;44;88;95
48;103;48;86
87;64;87;44
64;95;40;78
79;48;79;32
72;63;52;79
36;80;79;32
64;87;36;68
95;32;84;55
48;78;32;84
63;64;63;32
76;71;48;95
40;80;44;76
79;64;87;48
94;40;95;63
76;63;72;71
80;63;80;87
76;79;72;79
80;77;76;95
76;77;76;95
72;95;64;111
64;109;56;103
79;88;87;76
111;64;111;64
103;52;102;74
92;64;94;77
76;87;68;95
72;95;64;95
64;95;64;100
56;88;79;64
95;52;95;52
94;44;88;55
84;63;68;79
68;77;64;79
76;59;64;95
52;95;44;95
48;95;40;88
46;72;59;64
87;48;79;76
79;64;79;48
95;44;87;63
68;61;68;79
64;71;64;79
52;95;48;95
72;63;72;52
80;63;68;63
76;57;76;63
80;55;68;79
64;87;64;95
64;79;64;95
72;79;68;86
95;68;95;48
95;52;92;63
72;87;68;95
48;76;95;62
84;95;68;95
52;100;95;64
100;64;84;87
64;86;66;64
92;95;52;88
95;44;95;63
48;95;64;95
63;64;95;40
64;95;64;95
55;80;95;48
64;95;48;92
63;64;95;63
64;87;64;95
44;80;63;40
95;32;72;63
40;76;39;48
79;47;72;55
40;76;32;60
79;32;72;63
36;78;32;48
79;44;52;79
32;64;79;40
64;95;40;95
46;64;87;40
64;79;48;90
79;64;95;48
80;79;68;95
48;84;79;48
76;95;64;95
52;76;95;48
64;103;64;102
71;68;95;70
64;109;56;80
95;64;103;71
64;95;64;103
71;72;103;62
68;96;60;76
111;64;92;95
68;94;71;64
102;40;80;95
52;72;95;52
72;95;36;78
79;64;84;52
52;85;32;72
63;64;87;47
48;84;36;64
79;32;76;42
52;79;32;76
32;64;47;64
79;32;79;36
52;79;32;79
32;79;32;64
63;40;85;20
76;47;64;63
48;87;36;79
32;79;40;64
79;40;87;32
64;63;64;92
32;74;63;52
93;32;80;63
40;76;71;44
78;48;52;87
36;64;63;56
95;40;76;87
47;72;87;44
64;95;40;72
93;48;86;63
68;87;64;95
48;95;52;76
95;48;94;54
84;79;64;95
64;95;64;95
48;95;48;84
79;52;95;58
68;79;64;95
52;95;52;88
79;48;80;63
48;95;64;95
40;87;48;95
47;64;87;60
40;76;71;44
80;61;64;87
32;76;55;64
95;32;78;63
32;87;32;87
47;64;28;56
63;32;79;20
78;34;64;63
44;79;32;79
32;85;36;76
44;64;63;64
87;32;72;62
64;79;48;95
44;95;48;92
44;92;55;76
95;48;95;63
64;95;40;84
95;48;95;79
64;92;48;95
71;76;103;63
64;111;64;76
111;56;84;110
40;92;79;68
103;52;64;84
79;68;59;76
95;52;84;79
48;95;44;84
87;64;86;63
52;86;40;84
79;64;92;47
64;92;40;86
63;64;87;71
40;93;40;76
87;52;86;63
40;95;40;72
87;40;95;36
48;87;36;84
24;76;32;56
77;36;64;63
36;68;63;32
44;79;32;68
63;36;72;63
36;87;32;72
79;48;95;40
48;95;44;84
79;52;79;52
64;95;64;95
63;68;87;48
64;95;64;103
71;88;54;64
92;40;68;79
48;76;87;62
64;95;48;103
63;72;95;79
64;103;58;88
95;64;92;87
64;111;60;92
95;72;100;79
64;111;64;100
95;64;98;79
64;108;56;80
111;48;88;95
48;95;52;80
95;48;76;79
44;72;40;64
95;48;80;63
48;93;40;87
63;64;79;63
48;95;46;68
79;44;72;63
40;87;47;64
87;32;64;79
32;87;32;68
79;36;87;47
40;93;32;84
55;64;63;32
48;79;36;76
59;68;87;40
64;87;64;87
44;80;46;52
95;48;86;63
48;88;48;84
79;64;94;63
64;94;48;84
63;72;103;48
72;95;52;68
95;64;88;71
64;92;58;80
95;64;95;58
80;79;64;100
52;76;95;64
100;40;84;95
44;84;79;68
95;36;87;95
40;95;48;88
63;52;95;40
68;95;48;87
77;64;87;36
52;95;36;76
79;48;95;40
76;44;64;63
48;79;47;32
76;40;52;79
32;64;63;24
44;79;63;32
64;47;40;56
87;24;76;45
48;79;32;76
55;52;63;36
79;55;52;79
40;87;36;87
40;87;40;86
44;68;71;64
95;36;80;71
64;95;64;95
52;95;64;95
54;84;95;64
76;109;52;84
95;64;92;71
64;95;64;94
79;72;111;64
92;66;68;103
40;92;67;72
111;48;92;95
40;100;56;80
95;64;95;71
48;95;48;94
71;64;95;52
68;95;52;95
55;64;95;44
48;95;44;86
63;64;95;36
52;93;48;89
63;48;95;36
48;95;32;84
55;52;80;47
44;70;44;48
86;24;56;63
32;63;48;79
32;64;79;39
36;87;32;72
63;52;74;63
36;93;32;86
63;64;81;63
40;95;40;80
79;48;95;63
48;76;50;68
95;40;72;79
40;95;47;72
95;48;84;95
40;92;48;92
71;64;87;79
48;95;79;64
100;44;80;95
40;111;52;100
79;92;111;52
72;103;64;110
64;95;68;92
95;64;95;56
102;48;95;52
88;48;90;63
80;50;88;48
87;40;76;63
64;63;64;79
52;79;64;87
52;87;48;87
40;93;40;95
44;93;40;68
60;64;79;44
79;32;64;32
64;63;52;63
64;42;64;79
52;63;52;79
36;84;40;72
63;64;79;56
92;36;86;40
52;63;48;79
56;63;64;79
64;79;48;95
64;79;64;95
68;79;64;87
72;71;76;95
64;79;76;87
72;79;72;79
80;77;72;95
72;95;64;103
52;95;54;94
69;84;79;76
95;68;95;64
95;64;111;64
95;64;95;64
103;64;95;64
95;64;95;64
103;64;95;52
95;48;95;44
95;44;95;40
84;52;40;87
48;87;48;95
48;93;40;95
44;64;71;36
68;55;64;55
48;79;32;64
63;48;79;28
64;39;44;64
79;52;63;52
95;28;48;79
63;64;63;52
87;36;70;63
64;87;48;87
44;95;40;87
48;68;79;52
95;44;72;79
64;95;44;90
63;76;87;64
95;48;86;58
80;79;64;95
71;44;94;61
80;48;72;95
40;95;72;95
60;68;95;60
64;77;68;95
52;110;79;64
111;48;92;87
64;64;102;95
64;92;56;84
95;48;94;95
60;72;87;48
88;52;76;95
58;72;69;64
95;44;80;63
40;87;48;95
53;92;79;40
64;92;40;87
79;48;91;79
44;68;93;50
64;94;40;72
63;64;79;32
76;63;52;82
79;32;48;79
36;56;77;41
64;58;64;79
40;64;44;64
87;64;79;52
86;32;72;87
55;64;79;48
80;40;64;87
55;84;40;80
87;68;79;52
84;79;64;95
48;84;44;68
95;55;64;87
52;80;52;64
95;40;80;79
52;92;44;72
95;48;95;55
64;95;48;80
79;64;95;44
68;62;64;95
48;64;79;40
84;46;76;79
36;92;40;87
63;64;87;40
68;71;40;93
63;64;93;52
44;87;48;95
55;72;40;64
79;40;79;36
56;63;44;52
87;32;79;33
48;63;40;78
55;40;86;32
64;63;40;76
77;44;76;28
64;47;40;79
47;56;63;32
64;61;56;79
32;87;36;68
87;36;95;52
64;95;48;76
79;47;64;95
32;76;87;36
76;79;64;92
63;64;92;55
64;95;76;103
40;103;52;88
87;68;95;60
84;95;64;110
79;68;87;56
84;76;80;95
64;92;52;80
111;48;84;75
64;95;48;72
95;48;92;60
68;79;52;72
87;64;80;63
48;85;44;52
95;32;80;55
48;87;32;76
45;64;79;32
70;40;44;70
63;32;76;42
40;70;63;32
68;30;52;63
32;64;63;24
32;79;24;64
63;24;76;47
24;78;16;78
63;32;87;32
64;44;64;63
36;64;79;46
52;79;36;93
46;64;87;46
64;95;48;95
63;64;95;63
68;87;48;103
63;64;92;79
48;101;48;103
69;72;95;48
84;63;56;84
95;64;101;79
48;102;52;92
95;68;94;87
64;103;64;111
64;84;71;64
111;64;88;79
64;88;67;52
84;63;64;95
48;68;87;48
80;44;64;95
52;64;87;40
68;87;48;86
63;64;87;40
64;79;48;86
63;64;87;36
52;78;32;64
79;32;84;47
32;76;32;68
63;36;79;20
68;22;48;79
28;64;32;48
63;24;79;28
52;63;24;66
79;36;79;32
72;47;64;79
32;95;36;84
79;48;93;63
48;95;44;84
95;40;95;54
64;95;72;79
52;84;44;68
87;64;95;48
84;71;64;95
40;94;79;72
109;40;95;79
64;95;52;88
95;64;111;56
76;79;68;103
56;76;95;58
64;95;52;86
95;64;95;55
72;79;76;95
52;72;95;44
64;95;48;94
79;64;95;44
90;48;64;63
48;87;36;68
61;64;55;52
91;32;64;87
63;52;79;47
48;85;24;64
79;32;76;36
48;63;32;76
31;52;79;32
64;23;40;70
30;48;44;48
87;24;64;79
24;79;32;87
52;52;87;42
64;79;40;95
54;64;87;45
48;95;44;76
95;48;80;95
36;88;40;84
87;48;95;40
94;40;68;79
48;76;77;48
64;95;40;86
79;64;95;79
48;95;44;84
95;52;103;71
64;95;48;95
71;64;95;63
52;95;60;68
102;40;72;95
38;76;61;64
95;40;68;87
32;84;32;87
55;48;87;55
36;92;32;72
87;36;87;63
44;78;44;52
87;32;64;79
20;78;20;77
63;48;78;24
36;79;32;79
61;40;79;32
64;36;40;79
38;52;78;47
52;79;40;87
46;52;87;55
40;87;36;68
79;40;95;36
48;90;36;86
63;52;79;36
52;86;32;87
63;64;87;40
64;87;52;95
52;76;79;76
84;63;72;95
52;95;95;52
68;87;72;87
64;111;48;76
95;40;84;79
64;95;48;68
95;44;95;44
80;79;64;95
36;86;40;86
87;48;95;55
48;85;32;87
71;68;77;40
95;32;68;63
40;72;40;52
87;32;87;32
56;63;32;76
30;64;63;40
78;37;64;79
20;87;32;78
63;64;79;36
64;79;48;87
55;64;63;48
95;36;70;63
40;76;32;56
87;40;78;32
64;63;36;79
63;52;79;32
93;40;72;93
63;48;92;36
84;87;64;92
95;64;101;71
64;88;56;64
111;48;80;71
64;103;52;95
50;84;54;68
103;48;103;48
88;63;64;95
54;76;95;64
80;95;64;92
87;64;111;52
64;95;48;95
61;68;79;46
48;88;36;95
60;64;79;52
95;40;64;95
52;72;79;48
84;40;72;46
52;79;32;76
47;64;63;48
91;32;64;79
32;87;36;64
79;36;79;63
32;87;36;79
63;52;87;32
44;93;36;79
55;64;63;44
95;36;56;79
46;64;63;48
95;32;78;36
56;79;44;48
87;44;68;63
44;90;40;68
63;64;95;40
72;71;64;95
32;64;63;64
91;40;64;84
87;64;95;64
95;52;94;79
80;71;72;109
68;87;64;95
52;109;52;103
64;108;52;84
87;72;95;64
103;48;95;66
72;95;80;79
80;63;72;71
72;63;64;95
64;87;64;87
64;79;64;79
52;95;52;95
64;79;52;95
64;79;64;95
48;95;40;95
44;78;47;70
79;64;79;44
93;36;87;32
87;32;78;32
64;44;64;28
64;36;56;63
48;63;44;79
52;63;64;63
68;53;64;63
68;52;72;47
64;71;52;79
64;63;64;95
64;79;52;95
64;79;64;87
72;71;80;63
92;48;84;87
72;79;72;103
64;109;52;109
56;100;62;96
76;84;95;72
103;64;111;64
94;56;96;87
80;79;80;62
80;71;80;71
84;52;86;63
64;92;44;80
87;64;87;63
44;95;48;80
95;48;80;87
32;95;48;92
63;64;95;55
40;95;40;76
79;64;79;56
76;55;64;63
48;79;32;52
95;40;78;38
48;79;36;72
37;64;79;40
76;24;64;63
32;64;47;40
79;28;56;78
24;68;61;48
87;32;64;79
24;78;38;64
79;48;79;40
92;36;72;79
44;68;47;52
95;40;80;63
48;84;50;64
87;48;87;59
64;95;40;68
95;48;84;79
52;84;57;64
95;54;72;87
48;80;60;64
95;48;84;79
48;80;36;82
95;64;95;44
76;63;64;89
54;76;86;52
64;79;40;76
95;52;87;44
64;63;48;80
39;68;87;32
68;47;48;79
31;68;79;32
64;47;48;79
16;60;36;44
79;32;64;63
16;79;28;52
79;32;68;79
24;79;32;68
63;48;63;32
84;32;56;79
32;64;63;48
79;32;76;47
40;79;32;68
95;40;72;63
48;87;32;48
95;32;56;63
40;68;77;36
78;44;64;79
48;95;47;76
95;48;95;60
64;94;44;64
95;40;72;79
52;95;40;76
95;52;80;77
64;95;48;95
36;76;63;64
95;48;64;93
87;48;92;46
64;95;64;95
38;76;79;64
88;50;64;95
32;86;61;64
95;32;72;79
32;79;32;72
79;40;68;79
32;87;40;87
63;52;87;32
68;63;56;79
44;64;63;40
79;38;52;63
36;70;24;48
87;32;64;47
48;63;40;70
47;44;79;32
68;37;52;79
47;52;87;32
64;61;40;79
79;40;95;40
76;47;78;87
44;64;87;40
84;54;64;95
63;64;95;36
76;59;88;79
52;95;48;107
69;68;94;95
48;92;79;64
111;52;84;95
48;103;52;84
95;52;95;52
76;95;52;95
79;64;101;79
52;86;52;92
79;68;95;63
64;95;48;76
95;64;92;79
64;55;64;79
48;79;86;79
64;95;48;95
71;64;95;52
48;95;36;80
79;52;84;63
44;85;32;76
63;44;79;32
56;79;24;78
63;40;68;79
32;86;32;79
79;48;72;79
32;80;61;48
84;44;56;87
44;56;79;32
72;47;64;87
55;52;79;40
84;52;52;87
36;72;54;52
84;55;64;78
79;48;95;48
84;40;76;95
52;68;87;48
92;55;64;95
79;64;94;54
72;79;64;95
44;80;95;44
84;61;80;95
40;92;61;80
95;52;76;95
40;85;63;64
95;40;76;95
36;72;44;64
95;36;92;79
48;90;36;76
95;40;95;38
48;86;47;64
95;32;80;63
32;79;32;84
63;32;87;32
48;79;32;72
79;32;87;32
48;79;36;74
63;40;79;32
68;61;40;82
63;36;87;42
36;68;36;64
79;32;79;47
40;76;32;76
71;40;84;55
48;93;32;80
79;64;87;79
40;82;36;76
95;48;95;52
48;94;79;64
109;40;72;103
40;84;87;48
88;55;64;95
40;86;79;64
95;54;72;95
40;92;36;84
79;52;95;44
64;95;48;76
95;40;68;95
40;92;47;72
87;44;72;87
32;80;32;70
79;40;87;79
32;70;34;64
87;32;64;79
24;64;63;36
76;47;52;79
20;60;55;48
87;22;48;79
29;72;38;56
87;24;56;79
20;78;47;48
87;32;87;47
40;78;32;76
79;40;95;63
36;87;32;92
79;48;72;87
48;76;40;80
87;48;87;44
64;80;40;70
95;48;95;48
68;87;48;95
71;64;86;95
44;92;79;64
100;60;76;111
56;72;95;48
80;77;48;92
63;64;79;48
95;48;68;95
54;64;87;71
52;92;44;76
84;40;48;95
60;64;95;40
93;32;64;79
44;64;63;40
78;47;64;79
40;64;39;48
86;39;64;63
32;64;39;48
64;55;32;79
36;48;71;63
20;76;45;48
79;28;64;79
63;32;79;32
52;63;32;68
79;28;56;63
40;87;36;79
36;64;79;32
72;55;48;87
39;72;79;36
72;46;48;82
47;64;63;64
95;36;72;79
48;84;36;80
79;40;87;79
64;79;48;95
79;64;95;79
48;88;103;66
72;95;68;111
48;84;111;48
92;63;72;111
44;92;71;68
109;48;95;95
64;88;61;84
95;52;76;95
40;92;69;68
95;50;64;95
40;80;71;64
95;36;95;47
48;95;36;95
40;87;36;72
32;87;36;94
36;87;44;95
44;72;63;72
79;40;85;32
64;55;64;79
48;79;48;79
48;79;40;95
40;87;40;80
32;87;32;87
32;87;36;78
32;84;32;86
44;68;71;56
84;38;76;79
64;63;64;87
48;79;64;95
48;95;48;95
64;95;48;103
48;95;52;80
71;68;79;76
95;64;103;48
80;63;84;95
72;95;72;79
68;95;68;111
64;109;64;109
64;109;68;111
64;95;64;103
64;95;64;111
52;107;52;84
79;72;95;64
92;71;72;87
64;79;72;95
48;95;48;94
48;95;44;95
44;95;40;76
44;76;55;76
54;72;63;76
63;64;79;48
86;32;84;32
64;47;56;63
36;79;24;70
55;48;47;40
87;16;64;79
55;48;87;32
92;32;68;79
32;72;42;48
87;38;76;79
32;72;46;64
95;36;80;79
36;76;47;64
95;36;90;44
72;63;64;95
63;56;95;40
64;92;52;64
95;52;80;95
44;80;54;68
103;36;76;95
71;52;95;40
76;63;48;84
95;48;95;36
80;63;64;84
63;64;87;40
90;41;64;95
32;84;52;64
95;40;88;79
36;84;55;64
95;40;84;79
36;84;36;80
71;40;95;40
44;84;32;72
63;32;87;32
52;79;36;52
79;24;52;79
36;52;47;40
79;34;40;79
24;76;24;79
55;40;87;32
48;72;32;64
79;28;78;53
36;78;44;72
95;36;68;95
45;84;63;64
87;52;72;95
47;84;95;64
95;48;68;95
44;95;71;64
92;62;68;103
40;100;95;64
88;77;72;111
48;101;87;64
108;60;92;95
52;84;79;64
108;54;80;103
64;64;109;48
80;77;72;101
61;72;62;68
95;40;93;63
68;79;40;95
61;48;76;95
36;80;63;56
95;36;68;95
32;80;63;48
90;34;72;87
32;76;63;48
93;32;64;79
36;64;63;36
86;36;64;87
47;52;62;48
87;36;87;63
64;79;52;95
52;52;79;44
64;95;36;76
87;48;95;48
64;90;63;72
95;44;80;95
40;80;95;44
80;71;64;95
44;76;54;72
95;48;84;95
56;76;60;64
95;64;87;48
68;95;48;95
77;64;92;95
64;72;71;68
109;64;107;87
48;93;44;84
95;52;95;95
56;78;71;64
103;44;64;95
44;72;58;64
87;48;93;40
80;55;64;79
52;95;40;88
44;64;63;56
87;40;64;79
32;85;32;68
53;70;47;56
63;48;79;32
76;55;48;79
48;79;44;79
47;64;55;36
87;32;85;20
64;45;68;87
63;44;64;79
40;64;63;48
87;40;76;55
64;95;48;94
63;64;87;48
88;54;64;88
95;48;84;63
64;95;52;84
79;72;95;64
103;63;92;79
64;95;48;84
103;64;111;64
68;103;52;92
95;64;84;103
64;80;79;72
111;64;102;95
56;102;52;88
95;52;76;109
52;84;79;64
109;54;92;95
44;88;63;72
95;48;92;79
64;95;44;80
95;48;95;54
52;84;36;64
87;36;87;55
44;79;32;68
79;36;79;47
36;70;32;64
79;32;76;28
64;47;48;79
40;44;79;63
40;87;36;70
79;32;86;47
52;79;44;64
95;36;64;95
40;80;53;64
95;36;68;95
36;78;40;64
95;32;68;95
38;72;47;72
87;44;92;77
52;95;40;88
77;64;95;63
64;79;64;95
52;84;95;52
68;92;71;76
111;52;76;103
52;80;56;68
95;48;72;95
52;68;63;64
95;44;80;71
52;95;40;90
77;52;84;87
40;84;63;64
95;40;64;95
44;84;40;64
95;40;87;40
64;86;36;87
55;48;87;62
48;95;32;84
79;40;64;87
38;68;63;40
87;36;72;79
40;56;63;48
87;28;68;79
36;52;63;36
86;47;52;87
44;64;63;48
92;32;64;93
75;48;95;36
76;63;68;95
79;44;95;63
64;95;52;80
79;64;95;48
80;79;64;109
58;96;44;84
95;52;111;52
88;79;64;95
87;64;95;95
64;88;63;88
95;64;103;79
64;111;52;102
87;64;92;111
64;100;71;80
111;52;68;111
54;76;63;64
103;40;84;95
44;76;55;68
95;40;72;95
44;85;44;64
95;36;64;87
38;76;32;76
79;32;84;58
48;79;32;72
79;40;68;77
32;74;47;44
87;32;56;79
36;64;47;44
87;20;68;63
32;78;55;52
87;36;78;63
36;79;61;48
90;36;72;95
44;68;47;64
95;32;86;79
48;86;36;90
79;48;95;69
64;95;64;95
66;64;87;64
103;48;68;95
56;88;79;68
111;52;94;63
72;87;64;88
79;64;95;48
96;71;68;103
68;72;71;68
103;40;64;95
46;92;61;64
95;54;80;71
44;80;40;64
95;44;95;63
48;95;44;80
79;40;92;46
64;95;32;78
79;40;87;32
64;63;64;87
44;64;63;48
95;36;87;47
52;79;40;72
61;48;79;32
72;47;48;79
39;68;63;36
84;46;52;87
36;64;45;52
87;32;87;44
72;63;52;87
60;68;71;64
90;40;92;48
72;61;76;55
64;79;64;95
48;95;48;95
48;95;44;95
44;92;48;86
48;94;52;92
58;88;63;72
54;88;63;88
71;72;87;64
87;72;95;76
103;48;100;48
80;63;76;95
64;95;64;77
76;79;72;95
64;87;64;95
64;95;64;95
52;95;64;79
52;95;64;95
52;95;64;95
48;95;40;95
40;92;40;68
59;64;63;68
79;48;87;40
72;44;68;63
56;55;64;37
52;63;64;79
36;79;48;79
40;79;48;95
48;79;40;87
40;79;52;93
36;87;40;79
64;79;52;95
40;95;40;86
60;76;79;72
79;72;71;64
95;48;88;79
64;87;76;87
64;95;64;111
64;108;64;68
111;64;68;103
64;72;95;52
88;79;72;95
64;80;87;64
109;48;80;95
64;103;48;76
103;55;88;60
64;87;64;84
79;64;79;52
95;55;84;79
48;72;63;64
95;36;79;79
48;87;40;64
95;40;93;44
64;93;32;76
79;44;87;63
44;68;63;48
87;24;52;87
38;70;63;48
87;24;68;63
28;70;61;44
87;32;68;79
36;79;32;76
79;36;95;32
76;63;80;63
52;91;44;64
95;48;80;63
48;91;40;80
95;44;72;79
52;95;40;72
95;44;86;71
64;94;95;48
88;71;64;95
52;80;58;64
103;40;76;95
52;103;48;80
87;64;79;64
95;63;72;103
62;76;87;52
95;44;76;95
44;76;44;76
93;40;72;79
40;84;55;68
95;48;95;46
52;84;44;70
87;40;82;55
48;84;36;68
79;32;79;55
48;79;32;68
87;36;78;63
40;68;39;32
79;39;64;87
32;64;36;56
79;24;76;47
36;70;32;56
79;32;72;63
36;64;47;40
84;39;68;79
36;72;32;84
63;36;64;87
45;76;59;48
94;60;76;95
56;52;95;40
76;63;64;94
63;64;87;40
86;71;64;92
63;68;79;64
103;60;92;95
52;86;56;68
109;48;88;103
64;64;111;48
92;71;80;95
55;76;76;48
88;79;76;95
52;76;63;68
95;48;84;95
48;76;36;78
93;40;90;71
44;95;44;72
87;40;85;87
44;68;79;40
84;39;68;79
40;84;36;72
79;36;87;47
48;78;47;56
93;32;64;79
40;56;55;52
87;28;48;86
46;64;79;40
80;55;52;93
47;64;95;32
80;55;68;95
47;68;61;48
90;36;64;95
63;52;95;40
72;77;52;76
79;64;95;44
80;63;48;84
79;64;95;44
80;63;64;92
95;48;95;48
76;79;64;88
79;64;87;52
100;44;64;95
52;76;95;48
92;79;64;88
79;64;95;48
88;71;64;95
79;76;63;68
95;40;95;71
48;92;63;64
95;40;95;61
68;79;48;93
79;64;95;79
64;95;48;86
79;48;92;55
64;91;36;84
77;48;87;52
64;79;40;84
55;64;63;40
84;32;48;79
59;32;72;79
44;64;79;32
72;63;48;84
87;32;91;32
68;63;40;84
36;64;55;56
92;40;79;36
72;63;48;95
40;76;79;64
95;40;86;54
68;95;44;80
71;64;95;48
80;95;64;102
48;88;63;72
95;64;95;64
95;52;88;58
80;95;48;95
52;68;79;48
78;87;40;84
95;40;84;79
40;95;48;80
95;36;86;55
64;95;48;76
79;48;87;36
72;79;64;95
50;68;63;64
95;53;88;87
44;86;71;52
92;52;68;79
40;68;47;40
84;42;68;55
44;79;32;64
79;36;79;63
36;64;47;64
87;32;64;79
36;64;63;52
87;32;68;55
48;87;40;76
79;52;78;79
40;80;52;64
87;47;64;95
79;48;95;40
80;63;48;84
63;72;87;64
92;63;80;79
52;76;79;64
100;79;72;109
48;94;79;72
109;52;92;87
64;103;52;84
95;48;95;48
94;52;76;79
64;95;63;64
76;79;64;95
52;76;95;63
68;95;40;86
79;48;95;44
64;95;32;92
63;64;79;32
68;79;48;87
63;52;93;63
64;79;36;87
63;68;79;36
52;63;40;87
36;64;63;36
79;38;52;79
36;64;41;56
79;36;87;32
64;79;68;79
40;72;32;76
79;64;87;46
56;87;36;80
79;48;87;46
64;63;80;79
52;95;48;92
71;68;71;68
103;48;95;48
92;79;52;95
79;64;103;85
64;109;54;80
111;48;80;103
71;72;95;48
88;87;68;103
48;109;63;76
111;52;88;95
63;80;95;64
103;63;64;95
79;72;95;48
84;79;76;95
60;68;95;40
76;79;48;87
63;64;87;48
86;47;68;95
63;40;95;32
72;63;68;79
36;95;42;68
87;36;64;87
44;76;46;64
87;45;72;79
40;64;63;44
86;32;72;63
36;64;53;64
87;36;64;87
55;68;63;36
86;36;64;87
44;64;63;64
92;63;68;95
52;64;63;64
95;36;64;95
52;92;54;78
95;54;80;95
52;92;40;94
93;56;100;87
52;111;52;92
95;60;80;111
70;80;79;72
109;79;72;106
79;72;95;68
96;70;80;87
64;95;64;103
48;95;64;95
48;95;48;95
44;88;46;48
79;64;87;64
90;40;86;32
68;47;68;63
56;63;64;47
48;63;64;79
40;79;40;79
40;79;40;84
32;79;28;76
28;70;47;68
63;40;79;28
68;36;64;79
40;79;36;79
40;79;48;87
32;87;32;68
54;64;63;68
79;48;87;68
79;56;95;64
94;44;88;40
64;63;68;95
48;95;52;71
64;87;64;103
48;95;48;95
64;95;64;102
52;100;52;68
87;64;95;64
95;48;90;48
64;79;64;95
40;95;48;84
62;76;63;84
63;68;79;64
87;48;95;48
80;48;78;47
64;71;64;95
48;95;48;79
44;95;40;95
36;64;63;52
95;32;85;47
64;79;40;64
93;44;64;79
36;87;63;40
95;32;70;63
40;87;40;68
63;40;63;48
84;24;79;63
32;87;32;68
55;64;55;64
63;64;79;64
79;48;79;48
87;48;89;36
64;87;36;82
63;64;79;64
87;64;95;48
95;44;76;87
64;95;48;86
60;84;79;44
84;40;72;95
63;76;79;68
95;56;80;108
77;68;79;72
111;64;92;95
64;84;95;64
94;63;72;95
95;60;103;52
76;95;72;100
79;80;95;48
95;40;72;95
40;88;48;76
53;68;63;64
79;52;87;32
79;32;68;55
48;79;32;68
44;64;55;48
63;36;79;20
64;63;32;79
36;70;31;56
29;56;47;40
78;47;44;79
32;79;40;40
84;33;64;63
32;87;24;64
87;36;68;79
40;80;32;64
87;32;87;36
76;55;56;84
71;52;79;48
93;44;78;63
64;79;64;95
40;84;46;80
77;68;95;48
95;44;80;87
64;95;48;95
48;80;63;72
87;64;95;48
84;79;64;95
48;95;48;76
71;64;79;48
92;79;64;95
54;76;63;64
95;36;84;63
52;95;40;80
63;64;79;48
80;63;64;95
63;64;62;64
95;40;56;93
32;87;32;72
61;64;79;40
79;48;79;32
76;53;52;79
32;76;44;64
47;56;55;64
63;40;79;32
68;55;40;76
32;64;55;48
79;32;86;32
79;36;78;77
36;63;36;64
87;36;95;32
80;63;48;92
63;64;86;63
48;71;48;84
95;40;86;79
48;95;64;64
88;78;88;79
64;111;48;92
95;68;95;84
95;64;111;64
111;64;88;79
72;79;64;95
64;103;52;92
95;76;79;72
87;64;102;52
95;54;84;60
80;87;64;103
48;84;55;68
71;48;87;40
90;40;72;79
32;87;47;64
91;40;76;79
32;79;32;72
79;32;87;32
68;32;64;79
32;87;28;52
79;24;60;63
32;63;32;40
76;46;52;79
32;68;47;48
79;32;79;32
72;47;40;68
63;40;47;68
79;32;87;63
44;72;87;40
86;36;68;95
55;95;47;76
95;62;80;95
70;72;100;79
64;111;64;100
93;64;102;79
80;95;64;68
100;79;80;95
64;100;48;80
106;77;72;111
52;94;44;68
95;52;68;95
48;92;40;80
87;48;87;55
64;95;40;84
79;48;76;79
48;95;32;68
79;32;86;40
64;79;36;78
63;48;79;40
78;53;40;79
63;48;87;32
72;63;36;76
63;52;63;32
79;28;76;79
38;64;79;32
76;38;48;87
55;64;79;48
86;32;84;79
50;56;63;52
93;44;64;87
63;48;95;40
68;79;44;72
95;54;64;95
54;64;95;52
68;95;80;79
64;103;70;72
100;56;76;95
60;84;95;64
92;54;68;95
64;111;48;92
95;64;95;68
108;56;88;111
79;68;95;64
94;60;64;102
79;68;87;64
95;63;76;95
71;72;90;71
68;79;48;80
87;64;79;52
94;52;78;95
62;64;95;40
84;79;76;95
63;64;79;64
84;54;72;71
64;95;44;84
42;68;55;64
79;40;87;36
64;79;40;87
32;68;79;32
87;32;84;42
64;79;48;79
32;72;47;56
87;32;84;95
32;87;63;64
92;36;76;87
44;95;63;64
103;40;95;63
64;95;48;88
95;64;95;64
102;79;76;103
79;68;87;64
108;87;72;103
79;80;87;76
95;64;111;64
103;64;94;79
72;111;68;102
77;80;87;80
95;64;111;64
104;79;80;95
64;95;68;110
64;92;54;88
79;64;79;48
95;36;68;79
32;79;36;80
63;48;79;40
64;63;32;68
79;44;72;63
36;79;36;64
87;63;44;87
52;64;86;63
40;95;32;76
79;44;76;63
40;87;32;87
36;77;32;68
43;52;79;64
63;64;79;48
87;36;86;55
64;95;40;87
44;72;77;48
95;48;95;44
72;79;48;95
40;80;61;64
95;48;95;40
84;95;63;72
95;48;95;48
88;79;64;94
79;76;87;68
103;54;76;95
48;103;103;52
80;87;64;84
95;48;76;79
52;95;44;64
84;79;40;88
79;40;80;95
44;76;79;64
95;44;72;95
63;64;87;48
92;40;90;63
48;84;32;86
71;64;79;36
72;63;48;87
40;48;79;32
70;32;64;55
32;72;30;63
48;63;44;79
32;68;32;72
32;77;32;64
55;64;63;44
79;48;87;40
76;38;72;40
72;32;70;55
52;63;48;79
36;87;48;86
32;93;40;82
36;84;40;76
47;80;49;72
63;64;79;68
95;48;95;64
95;48;95;52
92;48;92;64
48;95;40;92
40;87;40;72
36;84;40;72
63;64;79;48
87;36;84;47
64;63;64;63
44;79;64;87
40;79;52;86
32;84;40;76
36;84;32;64
63;48;79;36
79;32;72;20
64;39;52;63
36;63;40;79
32;79;32;78
24;77;24;64
20;71;20;68
20;70;20;60
20;68;20;64
20;64;28;48
63;36;63;48
79;32;78;32
79;32;72;63
48;87;36;72
63;56;79;40
78;54;64;87
63;64;79;64
92;63;48;72
95;48;95;49
76;79;48;76
95;64;95;64
100;44;103;79
64;111;52;96
95;56;98;87
64;100;48;98
93;48;103;52
64;103;44;92
95;60;94;79
60;68;79;64
95;40;95;63
56;95;44;80
93;60;72;95
77;40;64;87
40;87;71;56
86;55;68;79
40;95;36;64
95;48;95;32
72;63;64;79
52;64;79;61
48;87;38;44
95;36;76;47
52;79;24;56
87;32;87;47
56;79;40;52
76;47;72;79
32;78;63;48
84;55;64;95
50;64;95;48
80;63;64;95
60;68;95;48
84;79;64;95
79;64;95;95
68;95;64;111
52;100;87;64
111;64;92;76
80;95;64;84
111;64;111;64
100;79;80;95
68;84;95;68
102;54;92;54
64;95;48;84
95;52;88;95
71;64;95;55
72;79;48;72
95;64;95;36
68;71;64;79
64;87;40;76
87;47;68;93
63;64;79;52
92;40;68;63
44;76;47;64
86;36;72;63
38;68;32;70
79;32;70;79
32;72;47;56
79;32;68;47
64;63;40;87
44;64;79;48
95;40;95;40
72;79;64;95
52;72;53;72
95;44;76;95
48;95;56;72
95;54;64;95
48;95;54;76
95;40;84;95
48;102;58;80
95;71;64;80
103;64;64;95
52;84;95;64
84;79;64;95
87;64;95;87
64;111;64;92
103;71;84;111
64;88;78;84
103;69;92;102
87;64;103;69
72;111;48;86
95;55;80;111
48;103;60;68
95;52;95;44
72;79;48;72
87;48;79;40
76;63;48;87
47;64;95;36
68;79;36;68
79;40;79;47
48;79;32;64
79;40;85;32
64;59;40;72
79;40;79;40
80;71;40;68
79;48;87;40
64;95;36;68
87;48;95;47
64;95;46;64
95;48;95;48
86;79;64;88
87;64;95;64
92;61;68;103
66;76;52;84
95;63;84;95
77;68;109;60
84;95;64;92
95;72;111;58
80;95;52;84
95;64;109;48
88;68;80;95
63;72;71;68
95;57;64;94
79;48;95;64
84;63;72;95
36;84;63;64
93;63;48;76
79;36;78;63
48;95;36;76
79;46;48;87
55;40;87;61
40;79;32;87
63;40;79;55
48;76;44;64
78;63;64;87
62;64;79;48
86;55;72;71
48;93;40;68
94;63;76;95
79;52;95;44
80;71;64;95
87;52;95;52
72;95;64;95
87;68;95;48
84;63;64;101
79;64;103;48
88;95;68;95
87;64;95;64
92;95;68;109
95;64;103;79
72;95;64;88
95;64;103;52
88;95;64;94
95;64;95;52
92;62;84;95
71;72;79;72
95;79;64;95
79;64;95;48
84;79;72;95
69;64;87;48
80;79;64;94
79;64;71;64
89;79;68;87
53;64;79;40
80;44;71;87
71;68;84;63
48;95;36;80
71;32;79;63
52;95;40;68
87;40;87;36
72;79;64;87
60;48;95;40
76;87;64;87
79;64;95;48
76;95;52;92
95;64;94;44
68;87;64;95
40;95;44;95
54;80;79;64
94;40;84;79
64;95;79;64
84;60;80;95
64;95;77;64
94;79;64;108
68;76;95;48
100;56;88;95
56;92;52;68
95;40;95;48
80;55;64;95
62;64;95;52
92;79;64;95
64;95;48;94
93;48;95;36
72;71;64;95
40;94;52;52
84;40;76;63
48;95;48;92
52;48;63;64
87;36;72;79
44;68;63;64
87;36;70;87
62;40;87;36
68;79;64;87
44;80;63;64
87;40;81;63
64;95;32;88
40;87;52;76
36;91;36;87
40;87;46;76
58;72;61;72
36;84;40;76
55;76;63;72
79;68;87;64
71;80;95;72
95;68;95;52
100;52;88;79
72;79;80;52
68;79;68;95
48;95;52;71
64;95;48;88
48;94;44;92
44;84;62;72
71;68;79;48
79;64;95;64
95;48;92;40
64;71;64;93
44;87;40;93
36;82;47;68
55;64;79;52
87;40;87;40
72;47;64;63
32;79;48;79
32;87;32;79
32;87;36;76
32;79;32;79
32;79;32;72
55;64;63;40
79;36;87;40
79;32;72;38
52;63;52;79
44;79;44;84
36;86;40;72
44;84;44;64
63;68;79;64
87;52;95;36
84;44;72;79
64;87;48;84
87;48;95;48
84;95;64;87
95;48;103;79
64;103;48;84
95;48;88;75
72;79;80;95
52;95;48;92
95;48;103;52
80;63;68;95
52;68;87;48
95;40;76;59
48;87;44;64
84;63;40;87
63;52;87;32
72;47;40;78
71;32;79;63
40;87;36;64
87;24;68;63
38;68;28;73
63;24;79;63
40;87;32;64
79;32;76;55
48;79;36;68
79;32;72;63
40;84;38;76
79;32;87;40
64;79;44;87
63;64;93;60
64;95;40;88
79;48;95;71
64;88;52;76
95;48;95;71
64;95;64;95
48;103;52;76
95;64;95;56
80;79;64;94
79;80;52;72
95;55;64;94
79;80;60;80
95;48;88;87
48;95;63;72
95;50;80;95
52;92;48;72
94;44;72;95
52;80;44;76
87;44;72;79
40;84;47;64
87;36;76;63
48;87;36;64
79;39;64;79
36;68;54;52
79;28;64;63
48;63;32;87
36;64;79;32
72;61;48;79
47;64;63;36
64;47;44;79
32;76;55;48
93;36;64;63
40;79;40;68
87;52;63;40
76;47;72;79
44;95;40;72
91;40;92;55
48;92;36;80
91;36;90;59
72;79;48;95
68;64;95;52
76;63;84;63
72;79;64;92
79;80;87;64
95;52;72;95
58;88;44;92
79;40;92;47
64;93;48;76
95;52;84;79
64;79;40;95
79;48;93;59
64;79;64;79
48;95;44;64
84;47;64;79
36;95;36;44
87;39;64;63
36;94;32;64
87;32;79;36
64;79;48;79
47;68;55;52
79;63;64;79
36;76;63;64
84;63;40;68
87;48;86;63
48;95;36;64
95;52;87;48
84;44;80;79
48;95;44;76
95;44;88;63
68;71;72;95
48;103;44;72
95;48;92;87
52;109;48;76
95;64;111;48
84;95;72;107
79;76;79;80
103;62;92;103
64;111;54;92
103;71;64;92
95;68;103;48
80;95;48;76
95;64;95;44
80;63;76;95
40;86;55;68
92;63;68;95
40;76;79;48
84;55;64;95
58;64;47;64
87;79;64;95
44;76;63;52
84;63;64;87
47;76;45;76
79;45;84;47
64;55;64;95
44;72;71;32
84;47;40;92
55;52;91;36
72;79;64;79
40;95;36;64
95;40;95;47
68;95;48;92
79;68;95;64
95;79;68;94
95;52;92;95
64;111;56;72
94;95;64;96
93;64;111;60
80;111;64;111
48;111;79;64
96;95;64;111
52;111;56;84
95;52;72;111
52;100;60;72
95;93;48;88
63;64;88;95
44;95;62;72
92;79;64;89
79;64;79;64
95;79;64;84
95;64;87;48
84;47;84;79
48;95;40;76
87;79;48;76
79;64;71;64
92;45;76;54
64;61;76;87
44;94;40;95
63;40;78;54
40;95;32;72
79;48;95;52
90;50;68;95
40;86;79;64
88;40;86;63
40;95;63;72
95;79;64;84
95;79;64;107
77;72;95;48
103;57;92;95
64;111;52;84
95;72;95;68
100;87;64;100
95;64;92;95
64;111;56;92
109;54;84;95
64;95;64;80
111;72;111;64
92;95;52;80
95;64;103;63
80;95;48;72
95;52;95;63
68;95;40;84
87;40;84;79
64;95;40;68
95;44;95;48
84;61;52;87
63;68;87;40
76;55;40;68
63;64;55;44
76;63;56;79
36;76;36;52
79;63;56;93
53;64;79;39
64;87;48;76
79;52;79;40
76;79;40;72
79;64;79;40
76;79;64;87
44;95;48;72
92;79;64;92
55;80;55;76
95;52;95;87
52;94;63;76
111;64;92;87
64;109;70;88
103;71;94;87
72;111;64;111
95;68;100;103
64;111;64;96
95;76;96;95
64;94;87;72
100;95;64;94
95;64;95;52
92;56;84;71
76;95;64;95
44;72;71;64
95;40;92;44
78;59;64;95
40;86;59;68
71;64;79;48
93;36;78;63
48;87;36;68
60;48;63;44
87;32;95;36
52;79;46;64
85;63;48;84
79;53;68;79
40;95;58;64
95;40;95;36
76;87;64;95
79;76;79;64
95;79;76;95
64;109;64;95
48;111;79;64
111;52;111;52
88;95;76;111
52;108;79;72
103;71;92;95
64;111;64;111
79;84;111;95
68;108;64;88
109;70;108;111
64;108;111;80
85;96;95;80
95;84;95;80
95;76;95;64
109;64;96;52
72;87;68;87
48;95;48;76
63;78;63;64
95;48;95;40
76;54;64;63
36;87;48;79
32;84;32;72
44;70;42;64
55;64;55;44
63;56;79;52
79;36;87;32
74;36;68;47
48;63;40;79
24;85;32;68
47;64;55;48
63;52;79;48
79;32;78;36
79;36;72;45
68;55;64;63
48;79;64;95
40;95;44;93
44;95;44;84
55;84;52;64
95;44;92;40
80;52;80;52
64;79;64;95
48;92;44;86
40;94;48;76
47;84;46;76
52;80;55;68
63;76;44;68
36;84;36;68
47;64;63;48
79;36;84;32
68;44;64;55
40;79;32;78
63;36;86;61
40;91;44;64
79;47;40;68
79;52;79;36
70;63;32;56
79;36;87;32
64;63;36;64
79;48;87;32
64;63;64;79
32;82;63;64
79;63;72;95
40;95;44;78
87;63;68;93
79;68;95;48
80;87;64;95
79;80;95;64
88;87;64;88
95;68;95;64
94;75;88;111
64;106;79;88
108;79;96;103
72;111;64;88
106;95;80;103
95;80;95;72
104;95;84;111
64;100;95;80
106;87;64;84
111;68;111;52
84;95;64;92
95;72;95;64
92;87;64;88
95;72;95;52
72;95;48;86
79;64;95;52
84;87;64;95
61;80;95;54
68;79;52;72
87;55;64;95
63;68;87;40
95;32;64;79
44;93;63;40
92;36;68;79
40;93;36;64
85;63;52;93
61;64;59;64
87;63;40;90
79;48;95;36
72;79;44;84
95;47;92;79
64;95;48;84
95;48;95;95
63;88;79;76
111;56;80;111
70;88;111;64
92;95;80;110
95;76;95;80
109;71;108;95
72;111;95;80
105;77;76;111
94;64;104;79
72;111;64;72
111;64;100;60
76;95;64;84
95;70;64;95
60;76;87;44
84;63;64;95
60;80;87;40
84;63;64;95
40;93;52;40
94;38;86;47
64;95;40;68
87;52;79;40
76;79;48;79
79;56;79;40
78;63;64;79
44;82;46;64
79;77;64;87
46;86;61;52
84;79;52;94
79;68;95;72
95;63;84;87
52;95;79;76
111;52;100;79
56;108;63;80
100;64;76;111
52;80;56;80
103;64;101;87
64;95;64;103
61;72;103;52
80;55;80;95
64;103;48;84
95;64;95;68
95;64;95;52
95;54;88;75
68;95;48;95
48;88;61;92
69;68;95;64
95;40;80;79
64;95;44;68
79;72;79;32
82;63;52;76
95;48;79;64
87;42;68;93
46;80;55;64
86;42;64;79
40;95;38;72
63;64;87;36
68;55;32;87
20;86;28;64
79;24;76;47
64;79;32;84
32;64;87;36
87;46;76;79
52;87;40;84
63;76;79;68
95;64;95;48
107;52;94;79
80;95;72;79
64;103;48;95
79;80;95;64
95;76;95;64
95;52;109;64
68;111;52;103
87;76;111;68
111;64;109;79
88;95;80;95
68;109;76;95
68;95;68;103
48;102;52;76
71;64;95;64
95;64;95;48
95;48;72;79
64;95;44;72
79;52;95;48
94;48;95;36
72;79;48;95
36;72;79;44
93;36;72;44
64;63;48;79
36;87;24;56
63;40;68;79
24;78;47;56
79;47;52;87
63;68;79;64
87;46;86;95
46;80;79;72
95;63;94;79
64;103;48;92
95;52;95;75
68;111;77;76
102;95;76;108
56;88;95;80
103;71;102;95
64;110;66;88
109;111;80;111
64;111;75;96
111;76;92;119
64;119;64;100
111;64;110;87
68;111;95;72
104;64;92;75
64;94;53;86
95;56;94;95
64;95;48;88
87;72;95;63
64;78;64;95
44;80;71;32
68;44;86;55
64;63;40;74
79;52;79;52
78;79;40;64
87;32;68;79
32;87;32;56
72;55;64;79
40;87;36;36
64;63;32;68
79;44;64;86
63;64;63;64
78;79;48;85
60;70;63;64
87;76;64;95
79;80;95;64
92;95;48;72
95;64;103;56
72;103;48;92
95;64;111;48
80;95;52;72
111;52;111;60
76;95;52;64
88;95;64;92
95;52;111;60
80;79;64;92
95;64;111;48
64;102;87;72
95;95;64;80
95;52;88;79
64;103;52;48
76;79;48;87
79;52;79;48
95;40;84;60
64;79;64;95
36;87;87;40
72;79;40;70
87;48;87;63
48;93;36;72
79;44;64;79
32;85;36;56
78;79;56;79
32;78;38;56
78;42;52;87
32;80;79;32
84;55;64;95
36;84;47;68
95;44;95;40
76;40;95;42
64;95;44;84
79;64;95;55
68;95;48;84
95;56;100;77
64;111;75;84
103;79;68;92
111;72;111;64
88;111;71;76
119;64;111;64
84;95;64;92
95;64;107;56
80;95;52;72
111;64;109;52
76;95;64;95
79;68;95;64
84;71;80;95
69;68;103;44
76;79;72;95
77;68;95;48
76;95;48;80
87;44;80;87
48;87;79;40
84;63;72;95
36;92;52;52
95;40;86;47
52;87;32;64
79;47;68;63
40;79;44;64
85;71;56;92
71;52;93;40
64;87;44;92
60;48;95;36
64;95;48;72
87;47;88;87
52;95;63;72
94;87;64;95
95;64;95;64
100;95;88;111
64;111;76;88
111;64;108;75
80;119;64;109
71;92;111;64
119;52;106;70
72;111;64;100
111;64;111;64
84;111;64;100
111;64;111;64
92;95;64;92
95;72;87;64
92;87;64;95
71;72;79;64
84;79;64;87
87;68;95;64
84;87;52;52
95;32;84;46
64;79;48;84
36;80;54;52
78;63;68;79
44;68;63;40
76;79;32;68
87;40;79;40
68;63;48;86
79;64;63;48
79;55;80;79
48;95;40;84
93;40;95;54
64;87;44;95
63;68;95;44
92;57;64;95
48;95;52;72
93;71;72;95
48;95;79;68
94;79;76;108
64;80;95;48
84;79;72;111
52;98;70;64
111;48;95;70
72;95;64;84
95;48;103;61
68;79;64;95
40;84;79;64
84;61;80;87
48;87;60;64
84;63;95;55
48;80;52;64
87;50;56;78
79;32;85;54
64;54;68;79
40;63;64;79
32;78;42;32
78;39;64;79
40;79;44;79
63;44;79;32
68;38;48;68
63;64;63;64
79;63;48;87
47;76;79;48
76;63;64;95
40;95;40;80
87;48;94;63
64;95;44;84
87;64;95;70
68;95;52;88
95;52;107;64
72;79;68;109
48;92;79;48
88;79;72;95
56;101;95;64
109;65;94;95
64;111;60;72
100;79;64;111
52;88;87;64
96;48;94;48
72;63;76;63
64;79;64;95
64;95;48;95
52;84;63;76
79;64;95;64
87;64;95;64
79;68;87;64
95;48;95;48
79;64;95;48
86;40;72;63
64;63;56;63
36;87;36;87
40;79;32;79
32;79;32;68
39;72;47;64
39;72;32;64
39;68;47;64
47;64;63;64
47;70;61;64
63;64;87;48
95;48;92;40
76;63;68;63
64;87;48;95
44;94;44;80
58;76;63;76
71;72;79;64
95;52;95;44
95;48;95;48
95;44;95;44
84;54;84;48
86;58;76;63
64;95;64;95
44;95;48;95
62;86;57;72
79;64;95;64
95;48;95;48
95;40;84;53
72;63;64;71
48;79;64;79
64;77;64;95
40;84;79;36
68;63;64;79
48;95;44;64
76;63;64;87
36;95;59;40
64;63;48;87
32;87;63;40
64;61;76;63
48;63;32;76
32;68;63;36
64;63;48;81
39;72;79;36
72;47;72;79
36;95;47;64
86;47;72;87
48;84;63;64
92;32;84;63
64;95;52;92
79;76;95;63
72;95;48;80
95;63;80;95
48;103;95;64
92;95;64;92
71;80;103;60
80;87;64;100
79;68;95;52
76;79;64;95
