## File generated by myo_cap software 
## Available from github.com/ddantas/myo_cap 
## Timestamp: 2020-05-01_00-53-29 
##  
## EMG capture settings 
##  
# sampleRate: 2000 
# channelsPerBoard: 4 
# nBoards: 1 
# bitsPerSample: 12 
# ch0;ch1;ch2;ch3
288;260;224;232
223;177;152;152
164;151;109;100
142;111;84;84
100;96;92;92
104;77;64;88
88;94;94;84
72;72;76;95
95;92;68;64
52;58;48;64
95;93;87;93
95;71;64;76
88;92;88;103
94;80;80;84
95;110;87;69
64;64;68;88
109;95;56;72
111;64;92;103
105;111;111;111
103;119;125;127
121;104;84;84
96;100;100;88
68;64;64;64
92;95;79;56
72;108;102;88
80;84;76;68
94;95;103;111
95;64;64;72
84;88;84;95
100;101;111;109
92;80;84;94
96;107;108;96
92;92;92;108
111;87;79;64
64;84;92;92
111;95;95;95
85;64;80;102
111;75;64;80
84;95;102;94
92;111;111;102
80;68;64;64
76;111;79;64
84;84;80;92
100;111;60;64
111;64;64;76
80;111;87;70
64;64;64;68
94;111;87;87
64;80;102;111
111;119;111;84
72;92;100;111
100;111;111;100
104;127;95;95
84;76;72;72
88;119;103;87
72;80;84;102
111;117;119;119
113;104;100;84
72;68;64;64
72;84;84;80
64;64;80;95
95;87;52;72
103;87;52;84
111;68;64;80
80;92;102;109
95;87;68;64
72;92;111;87
68;64;92;109
87;64;64;80
88;103;103;108
111;87;64;88
100;111;95;64
80;104;106;119
95;68;72;80
104;111;111;119
111;72;80;100
125;111;96;80
84;84;88;96
92;80;68;64
56;52;52;48
76;95;95;95
103;70;56;72
95;107;100;111
95;68;96;111
95;64;96;111
119;91;87;76
68;72;80;96
96;111;111;111
111;76;68;84
125;68;100;111
111;104;84;72
88;111;111;85
68;88;102;111
117;95;91;68
88;100;100;96
92;111;111;119
119;125;127;109
80;80;84;96
111;104;96;104
116;95;68;88
119;109;119;108
100;96;80;92
104;111;95;95
72;64;92;105
111;102;104;100
100;100;92;96
88;72;76;100
111;64;72;94
100;108;111;95
68;80;100;108
104;100;96;92
109;64;72;80
80;72;64;68
80;95;95;95
95;76;64;68
84;95;79;64
80;105;101;88
80;76;72;80
80;95;95;95
100;111;95;111
95;76;68;96
108;95;64;80
110;119;111;95
76;87;68;80
88;108;95;64
104;111;111;95
72;88;92;96
96;111;117;119
111;100;96;88
92;111;95;78
72;92;110;110
108;111;109;76
80;100;116;108
92;72;70;87
87;95;95;111
95;68;110;119
119;87;72;88
111;111;95;76
88;100;104;119
111;72;76;96
117;119;111;111
95;77;84;116
119;119;125;124
124;111;95;87
88;100;116;110
100;119;119;95
80;84;123;127
111;95;80;104
127;80;80;104
119;68;84;100
104;119;111;119
116;95;80;76
72;84;111;119
91;68;109;111
68;88;119;93
72;72;68;68
88;111;71;64
88;93;64;72
100;77;64;80
109;52;68;84
94;109;109;100
88;80;72;88
103;95;64;80
111;66;64;72
80;100;109;111
95;64;84;108
111;111;111;119
111;68;88;111
96;84;76;68
64;64;64;72
92;80;64;79
95;111;87;74
64;72;96;109
111;75;64;72
84;95;56;84
111;52;80;94
80;108;109;104
92;95;75;68
104;111;111;79
68;72;64;64
88;87;56;64
92;71;48;68
105;63;56;64
80;95;48;64
80;95;93;87
103;111;100;100
88;84;92;88
72;68;56;60
56;57;48;64
95;71;63;48
64;68;64;64
72;46;48;64
72;93;95;95
95;52;76;80
88;95;95;95
95;79;64;64
68;72;80;84
88;95;79;71
87;95;95;111
114;69;80;100
110;111;119;111
72;80;64;80
108;87;68;72
108;71;64;80
97;109;111;111
95;72;72;72
70;87;87;87
76;64;64;72
100;111;111;111
119;76;80;100
100;104;84;80
80;94;88;84
84;103;103;111
111;68;64;64
80;88;80;72
88;71;52;64
80;95;95;95
107;52;64;95
95;56;68;76
72;86;95;95
93;64;64;76
111;56;68;92
109;109;88;64
64;84;100;95
71;64;68;84
100;69;64;80
103;57;64;95
95;60;68;76
84;103;111;103
92;84;84;80
72;76;80;95
95;111;111;96
72;72;68;68
84;63;64;80
80;92;80;68
84;79;48;64
72;95;95;79
56;52;48;64
72;84;76;72
92;44;64;84
95;95;95;79
64;64;95;95
106;80;64;64
64;80;68;64
92;95;95;95
95;95;103;111
111;100;84;72
80;84;88;84
84;107;109;111
111;85;64;76
111;87;64;96
111;71;64;76
80;76;80;84
111;48;72;103
95;80;68;76
88;55;64;80
93;95;95;103
106;111;95;79
76;95;111;119
119;109;72;80
100;110;96;96
100;111;87;85
68;72;72;72
84;95;79;64
76;105;111;111
111;79;72;92
104;108;104;111
119;85;76;102
119;95;72;80
108;95;85;64
96;111;108;100
92;117;111;119
119;100;84;80
84;88;72;64
80;92;100;95
103;111;111;111
108;119;111;72
88;95;64;76
110;95;95;70
80;95;64;84
100;111;87;64
84;87;64;84
108;102;92;88
76;76;72;64
52;56;64;87
93;77;52;72
84;103;91;79
64;76;80;92
103;95;95;87
72;79;95;71
80;111;111;95
64;84;92;88
80;80;72;80
80;87;52;64
84;87;52;64
72;95;48;64
86;76;68;72
88;52;48;52
72;95;95;95
103;71;52;72
95;103;109;106
104;111;84;64
72;111;95;68
72;88;108;106
108;108;104;104
92;111;119;95
68;72;111;87
80;125;68;64
68;80;92;108
95;87;72;64
84;96;111;111
100;104;111;119
111;111;119;119
103;119;127;127
124;108;100;96
100;95;84;124
125;127;119;84
96;127;84;92
127;84;84;88
100;117;100;80
72;72;80;80
84;95;77;64
68;95;106;109
104;111;95;79
72;96;117;119
119;81;72;72
84;96;96;92
96;87;64;64
100;95;69;64
92;67;64;64
64;72;72;84
84;95;56;52
64;76;76;72
64;95;87;63
48;64;80;95
95;93;87;95
111;84;64;64
68;84;72;72
80;95;95;52
92;79;48;84
103;111;77;64
92;95;68;64
80;111;95;64
68;100;111;103
111;87;64;72
76;100;104;92
68;64;72;84
103;56;64;84
95;95;95;95
100;111;111;76
72;96;111;111
76;83;85;79
64;72;68;72
101;79;64;64
72;103;111;79
64;64;64;72
100;111;87;64
80;111;95;87
91;68;72;92
111;87;77;64
84;111;111;88
68;91;111;100
111;111;95;91
72;72;68;84
117;95;76;68
84;111;79;64
88;105;104;108
111;85;64;80
111;95;111;111
118;111;78;80
108;119;119;119
125;111;76;80
88;96;125;95
82;76;68;84
111;95;68;72
96;111;79;64
80;100;109;111
119;79;64;84
92;111;111;111
72;68;64;80
108;111;111;111
111;95;72;84
125;84;72;88
100;79;68;92
100;111;111;95
79;73;64;80
108;111;95;111
91;107;111;92
80;116;127;95
72;88;84;84
100;117;111;84
68;80;108;119
77;72;84;104
111;111;95;119
110;108;100;96
92;111;103;64
84;96;104;104
96;119;111;109
117;119;127;119
108;127;127;127
103;80;108;127
127;119;101;88
84;96;108;124
125;127;80;80
104;127;127;126
108;104;100;88
116;103;72;72
119;93;64;88
111;95;64;96
108;79;80;108
111;68;72;84
106;87;64;96
111;111;79;64
72;104;111;111
111;76;84;116
111;103;95;76
88;100;100;111
111;119;79;68
92;119;111;92
95;127;111;127
127;120;104;88
96;103;72;96
110;119;119;119
121;127;127;92
88;112;127;125
127;127;111;92
96;125;127;84
104;127;119;111
127;127;127;127
127;127;127;143
120;116;116;108
108;127;127;127
124;116;104;108
120;127;92;84
120;127;127;127
127;127;127;119
88;104;112;127
127;127;127;127
111;88;104;112
116;119;107;92
80;80;80;100
123;95;72;76
96;108;96;117
111;111;87;72
100;95;64;96
119;111;119;127
119;111;111;127
127;141;127;95
103;127;127;127
124;127;95;84
100;127;111;119
119;127;127;109
96;135;119;95
80;122;127;127
119;103;84;84
120;109;80;104
116;108;104;108
127;127;109;111
101;80;112;125
127;127;127;127
127;127;127;97
100;143;111;80
104;116;127;111
72;104;110;127
127;109;95;80
80;116;110;96
84;80;68;68
88;111;64;80
101;80;64;64
84;111;87;64
80;92;111;109
108;119;85;80
108;111;119;113
111;125;119;124
120;122;108;108
108;116;116;119
116;124;127;127
116;127;127;127
120;120;124;127
127;127;95;84
104;119;127;92
80;108;116;127
127;111;80;80
112;111;76;88
119;111;68;80
104;95;72;100
119;93;72;68
116;95;64;92
96;108;109;111
111;111;125;125
127;104;84;80
80;119;111;93
86;76;72;92
110;119;111;111
107;76;80;96
113;111;111;95
80;76;84;96
109;111;84;68
80;108;111;79
72;111;111;111
72;72;76;84
110;111;95;119
108;88;72;72
76;108;80;68
72;96;111;87
73;76;85;95
83;64;64;76
79;95;111;111
88;92;84;96
101;111;91;64
96;111;87;76
80;111;87;76
68;92;96;84
80;111;77;68
84;94;100;105
100;109;119;111
119;116;108;104
100;125;119;103
111;111;127;119
80;104;121;127
119;80;104;108
104;127;111;80
88;124;119;111
80;84;96;104
119;111;93;72
96;125;123;112
104;113;127;119
93;85;80;76
72;80;100;119
95;87;72;72
80;100;108;104
111;111;68;72
88;119;79;80
108;119;116;119
111;72;80;100
125;111;119;127
124;100;92;119
119;96;88;80
96;119;125;127
127;127;120;112
100;88;80;80
84;119;91;68
80;88;96;100
92;119;95;111
119;108;88;84
92;111;64;88
88;84;84;80
72;80;88;109
95;64;64;72
103;111;95;68
72;88;111;111
111;118;111;104
100;88;76;64
64;100;111;111
95;111;95;111
123;116;127;127
127;119;127;100
88;88;84;76
88;119;119;116
118;110;92;80
108;119;125;111
85;72;88;96
101;88;88;100
111;111;111;125
127;119;127;127
127;116;108;118
116;108;100;96
100;119;72;92
96;84;84;104
111;108;96;88
72;84;100;94
96;111;111;111
116;117;108;96
80;100;119;95
79;84;117;111
72;72;76;80
88;80;80;80
80;92;86;72
72;64;64;68
95;95;87;56
68;92;100;95
56;64;80;102
111;70;68;95
103;111;108;111
111;111;100;96
100;119;111;111
125;100;80;80
88;127;95;72
84;88;111;111
117;111;127;127
127;127;127;127
127;127;143;127
94;84;108;120
127;124;100;88
84;96;100;100
104;127;111;125
116;116;108;100
121;127;111;119
127;124;100;88
80;108;124;127
127;95;80;80
92;127;93;80
96;111;64;88
104;119;111;79
92;111;95;79
68;76;80;88
111;76;64;80
96;87;64;68
80;92;100;95
92;111;111;95
64;80;84;100
111;111;111;96
84;92;111;111
111;127;95;87
72;72;88;100
92;92;92;108
111;110;104;92
72;104;111;111
64;80;96;92
80;80;84;101
111;95;93;68
80;119;111;119
119;108;100;104
96;96;80;84
96;110;108;111
119;119;127;125
127;127;127;111
119;135;108;84
90;80;72;80
104;111;87;84
68;68;76;96
111;111;119;111
78;80;100;108
123;111;104;111
100;88;80;88
111;111;111;111
103;80;88;122
125;125;127;127
127;127;127;127
127;132;96;80
84;100;96;84
68;88;119;111
78;72;84;84
102;111;111;111
119;119;104;80
76;72;68;64
92;100;111;64
80;111;77;64
84;109;111;95
87;95;111;100
96;96;111;119
119;95;72;72
88;108;96;80
88;111;111;111
111;117;119;119
116;127;127;127
100;88;96;108
124;125;127;111
80;96;96;96
108;119;125;127
92;88;104;96
104;104;108;96
84;92;110;119
119;125;118;116
104;100;112;119
104;104;121;119
109;127;127;124
127;127;127;127
127;143;127;116
104;116;127;119
109;80;104;127
111;111;119;127
127;96;103;127
112;104;100;120
120;112;100;84
76;72;76;92
111;108;100;80
80;96;111;87
64;88;108;111
111;111;116;122
125;119;119;127
127;125;100;88
96;116;119;108
100;100;92;123
95;68;64;72
84;92;100;109
111;111;119;125
125;125;120;122
112;116;116;108
96;112;127;111
80;121;127;127
127;127;124;124
127;127;116;104
124;127;127;127
127;103;88;116
127;127;127;135
127;112;96;96
96;116;100;84
80;80;80;88
111;111;109;100
92;88;84;92
106;111;111;111
111;119;127;119
95;95;84;80
80;80;88;104
111;105;88;72
64;64;68;68
84;95;76;64
64;64;89;95
70;52;52;64
92;95;71;52
80;95;77;52
68;76;64;84
92;93;95;88
80;68;68;76
92;95;103;95
92;94;109;109
104;104;104;119
95;68;72;96
111;116;108;92
80;96;104;104
88;111;111;108
84;68;70;79
87;108;76;95
88;72;64;64
88;95;108;111
111;95;92;68
80;96;100;111
109;108;116;119
127;127;127;111
95;80;88;96
108;119;127;127
127;95;80;116
127;127;127;127
127;127;139;116
88;88;108;104
100;80;80;92
109;119;95;68
72;92;111;111
111;117;92;80
96;119;85;72
84;102;105;119
119;119;116;100
96;118;124;108
88;80;80;88
92;92;100;108
109;108;92;80
72;72;88;111
111;95;95;95
95;111;92;80
95;95;111;111
78;76;68;76
96;108;111;111
92;80;88;92
111;79;64;68
88;111;95;111
111;116;108;102
96;80;68;64
72;88;84;72
80;80;88;95
95;84;76;80
88;92;95;95
102;103;84;68
64;76;80;92
95;95;109;111
95;111;108;96
100;88;80;80
92;108;100;88
76;80;103;108
111;102;84;76
76;111;87;64
80;96;100;103
111;111;92;72
72;88;102;108
108;76;95;88
72;104;111;111
111;111;119;108
88;88;80;96
95;64;80;108
119;95;91;84
72;96;106;111
119;117;96;88
96;96;111;111
119;111;100;96
108;100;92;88
84;84;84;80
80;76;80;95
109;71;64;56
76;111;95;64
72;84;94;94
92;80;76;76
72;72;68;72
95;63;64;84
95;87;95;95
85;64;80;102
111;95;87;76
64;88;111;95
95;70;88;116
111;68;84;104
117;108;88;68
80;84;100;105
111;104;92;80
92;111;73;64
80;102;111;109
111;111;68;80
110;125;103;76
80;127;93;72
92;114;116;111
100;100;88;72
68;80;108;111
111;119;111;111
78;88;100;109
127;95;72;84
100;109;100;92
88;84;84;84
80;92;111;87
64;92;111;111
79;72;88;76
68;84;111;95
111;108;92;96
88;80;84;105
108;84;72;76
84;88;92;92
84;88;95;103
96;84;64;52
72;95;95;95
95;87;64;68
92;100;92;80
80;76;84;84
95;92;80;88
103;71;64;80
100;88;80;68
64;64;64;76
95;95;95;103
94;103;111;111
91;72;88;92
84;92;100;80
64;68;88;93
92;103;101;103
101;92;88;109
111;64;80;104
111;96;80;80
68;64;80;94
111;103;84;64
64;64;72;76
88;84;84;76
88;88;84;76
76;103;79;52
72;80;84;86
84;68;64;72
80;80;56;48
48;72;84;87
72;64;64;68
84;92;80;68
64;76;94;94
95;94;92;84
88;88;103;109
94;76;103;88
72;80;94;111
95;109;111;119
125;119;84;80
76;96;124;111
76;100;125;119
111;111;125;100
88;88;104;127
81;96;127;103
95;84;72;80
104;108;108;119
119;124;124;108
100;96;108;118
127;127;116;104
112;100;96;92
88;88;100;88
92;84;80;88
80;72;68;80
80;72;76;92
95;95;84;72
64;68;95;95
95;79;64;64
76;96;103;95
92;100;109;111
72;84;117;111
119;119;127;121
96;84;84;96
104;109;109;108
123;87;72;96
119;111;119;110
108;100;127;125
116;96;80;76
80;96;119;119
95;84;72;72
96;119;111;95
95;91;72;80
100;104;80;68
84;92;94;109
111;95;68;68
88;88;80;64
72;88;92;111
95;64;80;111
95;74;74;79
64;96;111;95
64;96;111;111
117;119;119;95
72;96;104;108
108;119;125;127
118;96;80;72
72;80;92;108
111;111;64;96
119;93;68;72
100;96;100;96
111;111;111;96
84;88;111;109
111;119;119;127
111;84;80;104
108;116;108;125
125;116;88;84
88;88;92;102
92;84;80;76
80;100;111;79
73;64;100;107
100;88;64;64
84;88;88;100
111;95;95;78
64;92;105;111
111;104;80;72
64;72;96;95
64;72;100;111
111;95;79;68
92;111;111;111
119;119;125;119
119;92;86;80
88;100;119;125
95;80;88;116
123;108;96;96
96;96;92;96
88;80;88;94
92;80;72;94
109;111;92;108
119;64;64;76
92;92;111;111
111;79;68;64
96;96;84;64
64;64;72;80
84;64;68;80
76;80;95;95
95;92;92;111
111;79;64;68
96;103;100;104
100;109;111;110
100;84;68;64
64;92;108;111
111;104;84;68
64;64;64;68
68;64;64;76
92;92;95;95
95;76;68;95
111;111;111;100
88;76;64;85
87;87;64;80
102;94;76;72
72;68;64;52
76;76;84;86
88;86;80;80
80;72;64;64
64;68;95;95
95;93;68;64
48;64;76;95
95;101;95;95
109;111;111;108
116;92;72;79
85;95;111;111
123;116;100;108
119;125;127;121
116;116;100;108
121;127;119;127
127;112;104;100
104;96;100;125
125;85;72;80
88;119;95;68
92;104;100;92
96;100;88;84
104;103;84;80
84;111;111;95
68;76;106;111
119;95;64;88
119;95;64;80
100;111;119;111
92;72;80;88
104;95;68;68
96;84;80;84
80;76;76;86
80;68;72;95
95;63;56;52
72;72;72;72
76;95;95;92
103;95;95;92
100;111;111;95
64;72;88;100
111;111;95;87
72;80;92;96
104;111;95;64
80;84;92;102
111;111;110;116
110;84;68;64
72;80;84;88
109;95;108;111
119;93;72;108
119;116;104;104
122;111;80;72
96;88;96;119
111;119;92;87
95;89;72;72
84;88;104;95
64;80;110;111
111;111;110;113
127;111;111;125
112;96;80;80
100;100;88;100
92;80;80;92
100;94;100;111
111;64;80;104
111;68;80;96
96;100;111;111
109;80;119;111
111;107;127;116
108;96;84;80
92;108;110;119
119;77;72;92
116;111;68;88
116;119;119;123
116;118;104;96
112;116;110;100
84;72;80;102
111;74;64;88
101;111;111;111
108;88;72;76
88;84;72;64
72;80;72;80
80;87;48;64
72;64;76;95
95;68;48;72
86;84;76;92
76;64;68;68
95;95;95;103
101;109;111;104
92;72;68;84
92;80;72;80
92;95;95;103
108;105;84;72
80;88;92;100
111;95;95;111
111;91;68;88
111;111;111;119
127;78;80;110
119;68;80;88
100;110;111;111
92;76;68;64
84;92;103;88
80;80;80;80
84;72;52;57
71;48;68;95
79;48;64;88
95;95;92;68
64;72;95;103
95;93;77;64
84;109;111;111
79;72;88;111
95;64;88;96
96;92;76;68
64;52;52;64
76;95;79;79
79;68;92;92
111;69;64;64
84;84;76;64
68;64;64;68
85;87;44;64
92;95;95;80
80;72;68;76
88;95;95;103
111;64;76;94
111;111;95;64
116;64;64;80
111;111;96;84
76;72;76;92
108;109;111;111
103;76;117;111
95;111;119;104
88;80;72;64
68;96;103;92
84;64;64;64
68;92;79;48
64;88;95;95
100;84;84;92
92;80;76;72
68;84;95;95
109;95;95;111
111;110;116;125
119;127;124;108
92;80;92;119
111;72;92;118
127;80;68;96
119;111;111;93
80;116;127;116
122;111;127;127
127;116;88;93
88;80;80;80
92;104;100;104
96;84;84;92
106;102;100;84
88;84;76;76
84;95;80;68
64;64;72;84
84;95;52;64
103;69;64;80
103;95;75;76
68;72;84;88
103;100;80;92
109;95;95;64
72;80;101;107
109;111;111;111
100;92;92;88
80;64;72;72
72;84;95;111
95;64;103;95
64;80;108;111
64;80;108;111
111;95;95;111
127;89;80;100
127;92;76;84
127;72;92;119
117;116;96;80
96;92;84;105
111;111;100;96
100;119;119;119
127;127;127;118
116;125;119;108
112;116;104;108
118;125;125;127
127;111;111;95
84;84;108;122
127;111;109;84
88;88;100;119
111;85;72;80
92;80;80;84
92;108;111;111
119;68;72;92
111;111;104;100
109;95;64;84
111;95;69;72
92;105;88;92
111;95;64;80
92;94;88;76
76;92;95;103
94;80;64;64
64;64;68;84
95;48;68;88
84;92;103;109
95;64;68;98
111;87;95;111
119;111;123;111
103;94;84;72
108;111;95;95
76;84;104;125
84;80;104;111
72;96;119;95
68;84;100;119
127;77;72;72
100;111;119;116
108;96;80;80
96;109;111;76
68;72;72;76
100;111;76;64
80;109;111;111
111;119;104;88
84;88;108;111
119;72;100;119
111;68;88;96
96;96;96;108
117;111;72;68
68;72;80;94
111;87;70;64
84;100;103;111
111;111;123;127
125;119;111;80
100;125;127;124
96;80;80;100
125;72;76;92
111;111;85;68
100;119;111;86
80;80;84;96
116;117;119;119
119;84;92;104
127;68;88;108
116;116;127;119
96;84;96;108
116;119;127;127
118;124;127;118
120;103;80;92
116;111;111;127
127;80;100;127
95;80;96;121
127;72;112;127
109;111;109;111
111;84;116;127
119;88;88;89
88;84;80;84
104;111;96;80
80;80;88;101
108;111;111;111
119;96;88;92
92;88;104;111
119;87;68;72
100;111;93;64
84;80;76;94
107;111;92;68
72;84;95;109
111;95;79;64
100;111;109;103
95;111;111;113
104;100;80;72
80;72;64;64
64;64;84;95
60;64;64;72
88;93;92;103
109;95;64;84
96;94;72;64
64;64;95;95
71;68;111;79
64;80;106;111
111;64;72;92
102;111;111;119
119;68;72;84
80;72;76;80
101;64;64;80
95;95;79;74
64;64;88;84
88;103;103;88
80;64;56;52
64;72;84;90
92;95;95;84
92;103;111;95
70;64;80;111
95;64;84;111
64;72;92;92
92;111;87;64
88;92;80;76
94;79;52;64
76;64;64;68
95;71;48;64
80;93;84;76
80;76;64;56
64;48;64;64
52;56;64;76
87;71;44;64
84;95;95;79
52;52;64;84
95;95;109;111
111;95;68;72
119;64;80;111
95;64;80;103
111;111;84;79
105;80;87;106
84;80;94;100
111;64;88;111
95;64;88;111
111;72;104;111
111;76;80;92
104;111;108;111
100;92;88;111
119;64;96;119
111;74;68;80
111;87;64;80
119;71;76;92
111;64;92;106
108;109;102;92
96;92;84;84
76;68;68;76
109;64;72;88
95;87;95;76
64;68;64;72
84;84;76;84
95;52;80;95
95;95;76;73
64;64;80;101
111;109;102;84
80;84;102;92
100;109;104;96
111;64;80;102
111;64;80;94
111;72;92;111
111;93;87;68
88;111;119;111
85;80;96;96
119;72;72;84
94;92;111;111
64;80;84;84
84;92;80;76
94;52;52;64
80;95;95;95
64;64;88;103
111;87;70;64
84;87;64;64
100;62;64;72
72;64;64;84
95;62;48;64
84;87;95;95
103;95;72;64
64;64;68;95
103;95;91;56
80;111;79;64
80;88;111;77
80;108;111;102
88;96;111;111
119;76;72;92
127;64;80;92
111;72;68;64
80;95;64;80
94;95;93;87
76;64;80;84
84;88;80;72
76;88;88;80
64;52;68;80
92;84;92;94
95;52;64;68
103;95;109;102
88;92;80;64
68;80;84;92
88;92;80;76
68;72;88;95
95;56;64;76
100;79;52;64
84;95;95;92
84;104;95;64
80;100;111;95
64;76;92;111
95;64;84;96
100;111;95;95
68;64;80;96
88;88;80;72
80;76;68;84
95;95;95;88
64;56;64;92
95;52;72;103
95;52;76;103
101;102;111;111
77;72;110;111
111;100;88;96
109;111;104;80
68;68;64;72
94;103;111;93
68;104;111;79
64;76;84;84
88;111;111;111
104;111;111;92
72;80;100;111
103;64;84;111
95;64;80;88
92;108;105;111
108;96;92;88
117;64;80;111
111;95;87;68
88;108;111;87
76;88;84;84
88;92;80;72
100;111;95;95
93;64;68;80
108;87;64;80
108;64;84;94
108;95;78;64
64;64;84;109
100;72;64;64
76;95;95;103
100;103;88;84
84;92;84;102
108;95;93;95
95;68;76;88
104;95;64;76
111;87;68;64
76;80;103;95
96;87;64;80
96;111;111;111
119;95;72;80
96;102;117;111
84;72;88;100
119;79;72;64
72;80;80;80
88;101;92;72
68;64;64;68
76;72;64;68
76;79;44;52
80;87;44;64
72;95;71;48
72;92;80;72
64;68;92;95
93;92;103;109
111;76;64;80
111;87;64;64
92;111;87;79
64;64;80;92
111;64;64;80
92;111;95;71
64;64;64;56
64;80;92;103
95;52;68;80
80;93;76;64
68;92;92;92
103;93;95;95
111;64;64;80
100;103;94;80
88;95;79;64
68;84;92;80
72;64;64;72
95;87;79;52
64;84;92;80
64;64;48;52
72;95;95;69
52;64;64;68
68;84;95;87
87;69;75;56
72;88;103;111
111;109;104;80
76;87;64;72
84;88;103;103
111;79;64;64
84;111;95;79
64;64;68;72
64;68;95;87
52;64;64;64
84;95;95;95
79;64;84;107
111;111;111;119
111;91;72;68
84;80;96;111
111;74;64;80
92;96;100;92
88;111;69;64
76;84;103;95
68;64;96;109
92;80;76;68
72;88;95;95
95;79;64;84
96;95;76;64
64;72;84;95
109;87;64;64
88;111;111;111
111;119;111;72
84;96;92;100
119;85;68;100
111;111;100;96
96;95;68;64
72;88;105;111
111;64;72;84
111;72;106;111
87;64;80;92
100;111;79;72
104;68;64;84
111;95;111;88
68;68;68;64
68;84;102;95
111;64;80;110
111;87;64;76
88;111;95;64
72;88;111;79
64;68;64;72
102;95;64;64
92;95;87;64
68;103;111;111
111;111;111;119
127;127;108;92
88;80;76;87
91;64;72;88
111;71;68;88
100;94;84;80
88;87;64;76
101;71;56;84
109;52;52;80
95;68;52;64
95;69;48;52
80;95;95;95
88;103;103;108
110;104;88;84
92;111;87;64
96;92;80;92
111;64;68;80
84;76;76;84
92;79;52;80
95;95;56;52
72;95;95;79
52;72;84;80
88;95;95;95
93;64;84;92
108;111;95;68
72;88;100;111
103;79;64;92
111;79;64;64
80;95;78;64
80;106;111;96
76;64;68;87
95;109;92;80
92;95;68;64
96;111;111;111
95;72;72;100
111;111;100;100
100;104;100;104
108;119;119;119
127;95;80;112
125;124;116;116
118;86;80;88
96;119;119;110
104;95;80;104
116;111;91;72
92;119;111;64
96;119;119;123
127;87;72;88
96;111;102;96
96;119;111;79
72;100;100;104
119;64;80;105
111;85;76;87
95;72;80;96
96;108;119;85
68;72;64;64
64;96;95;64
88;111;79;64
88;111;104;84
80;100;100;88
84;76;64;64
88;79;48;52
64;72;76;84
92;95;76;68
88;95;95;94
72;64;64;72
80;84;84;64
52;48;44;40
68;93;87;79
64;80;95;69
64;72;80;95
95;87;79;79
79;64;64;64
80;103;111;95
87;73;64;88
102;111;110;96
100;108;110;108
100;119;111;104
110;104;100;108
123;79;80;111
119;119;100;80
72;80;88;88
111;76;64;84
92;111;95;73
64;72;92;102
92;100;94;88
84;92;88;76
84;95;109;94
72;76;84;94
88;100;92;102
111;111;111;100
88;92;96;108
111;79;64;88
111;77;76;111
111;87;68;72
104;69;72;88
111;87;64;72
80;111;103;88
84;102;100;102
92;80;68;64
80;68;76;103
95;75;64;72
76;95;103;109
95;87;95;95
111;88;76;84
96;95;68;64
88;111;95;79
64;79;111;96
80;84;68;76
84;109;109;105
92;80;72;84
105;56;64;100
111;79;64;76
106;79;64;64
100;87;85;69
64;68;88;100
111;87;68;68
64;68;84;80
76;95;103;111
93;95;111;119
119;110;112;116
104;117;127;89
76;110;119;103
87;76;72;72
80;116;111;87
64;72;88;111
111;111;119;100
80;72;96;119
87;72;92;100
108;111;119;108
113;108;100;104
92;88;105;119
76;84;100;119
84;87;68;64
88;105;88;80
88;111;87;73
72;102;111;111
111;111;117;117
104;96;96;96
119;95;79;78
72;80;96;111
119;111;111;127
95;88;127;111
84;76;76;72
88;127;84;78
68;72;80;88
88;92;111;95
64;64;68;68
80;76;68;68
88;79;52;48
64;76;84;76
72;68;64;68
85;95;95;84
76;88;88;103
111;79;56;76
108;111;111;100
88;117;117;102
100;119;103;111
95;84;72;72
100;119;119;123
116;100;96;96
114;95;72;80
100;119;119;125
127;127;124;96
80;76;72;88
119;76;72;92
111;93;79;68
80;111;87;64
96;108;111;119
111;119;117;110
116;127;119;80
96;111;76;100
108;119;127;119
111;111;127;127
127;127;127;124
138;119;127;127
127;111;125;127
132;127;127;127
112;104;108;126
111;84;76;96
127;111;78;80
104;111;79;72
108;119;119;95
72;96;123;119
111;95;76;80
96;111;103;119
104;96;100;119
119;111;92;76
96;110;127;111
76;76;76;72
64;80;119;95
64;108;95;68
68;96;103;79
64;84;104;105
110;111;108;84
72;64;68;68
72;80;80;72
64;84;88;88
95;87;95;95
64;64;72;80
80;72;64;64
80;63;48;86
95;94;84;76
80;95;95;95
76;64;84;102
109;111;92;80
80;84;88;103
100;111;110;92
88;88;92;106
100;110;111;118
100;80;72;80
80;111;79;68
64;84;94;84
88;103;95;64
72;111;111;79
64;80;92;109
111;68;76;105
95;109;84;72
92;111;110;108
111;111;87;68
84;100;96;111
77;64;64;80
100;111;95;111
119;125;95;80
80;92;96;104
111;111;87;95
95;72;88;111
108;119;119;117
127;95;80;108
112;124;119;108
84;72;80;119
111;103;95;76
84;125;111;111
85;76;80;104
119;111;125;111
76;104;127;119
127;127;108;104
88;96;96;117
111;104;88;80
84;111;111;108
100;100;119;119
125;119;119;127
127;127;127;116
127;127;84;96
127;127;127;127
127;127;127;143
127;120;96;96
108;127;119;95
80;92;104;127
84;76;80;96
108;119;107;95
95;68;92;119
125;125;119;127
127;127;125;104
96;104;127;127
127;125;127;127
92;108;116;127
116;104;100;108
119;118;96;76
80;121;111;87
68;84;108;111
124;91;80;96
100;100;80;68
64;88;111;111
111;70;72;108
111;111;88;80
84;84;92;106
102;110;119;119
119;92;80;87
68;72;84;96
111;111;95;76
72;119;79;68
64;80;92;100
110;96;88;84
72;64;60;68
56;64;68;84
87;48;72;95
95;95;103;111
79;64;100;95
64;76;92;111
111;111;104;92
84;111;79;76
64;64;80;80
102;109;110;105
88;80;88;94
108;109;96;88
88;84;92;92
88;92;80;76
88;95;68;52
84;109;70;64
76;88;109;87
64;97;111;111
95;68;72;92
111;76;64;84
100;111;111;111
100;110;111;119
116;100;124;119
93;72;80;80
88;80;64;64
64;84;102;87
79;68;56;64
80;103;95;101
84;80;64;56
52;80;103;95
79;56;68;72
76;103;79;52
76;76;68;64
64;84;95;95
95;79;64;64
84;109;95;111
111;95;95;93
68;92;111;111
68;92;119;95
64;96;102;111
119;111;111;111
87;80;76;108
119;68;76;96
111;76;64;64
76;76;64;64
80;95;60;68
95;84;64;52
64;64;92;95
95;103;109;111
111;108;96;92
80;80;72;64
64;88;103;109
111;79;64;80
111;111;109;96
100;100;117;119
119;125;124;127
127;119;88;88
100;119;95;95
76;84;110;123
108;108;121;125
127;116;112;127
111;80;100;122
124;127;127;127
84;104;124;116
108;100;100;112
114;121;116;96
84;108;119;111
119;119;127;127
127;108;100;96
104;127;127;103
80;120;127;127
119;127;127;127
124;112;108;120
125;121;112;116
116;112;96;84
80;80;103;111
111;78;72;84
92;111;109;95
72;80;96;111
111;96;84;80
88;119;79;64
72;104;111;111
78;68;88;104
119;117;104;96
84;88;92;111
95;64;80;84
111;79;64;80
92;108;111;95
68;80;109;111
109;88;80;88
100;95;64;72
84;111;64;72
106;95;64;76
88;106;111;111
111;78;68;72
80;111;95;64
84;92;84;92
95;73;64;80
111;95;70;64
80;111;111;95
111;84;95;96
72;76;96;111
111;95;68;84
108;111;111;111
125;111;76;80
92;127;119;127
87;76;96;108
119;127;127;119
84;80;112;95
88;127;127;111
127;92;84;108
127;127;88;80
96;125;127;126
116;116;100;96
100;108;125;127
127;117;88;111
121;96;92;120
111;95;80;120
127;103;89;80
104;127;86;80
110;87;76;88
100;119;111;87
80;92;84;68
64;80;92;109
95;64;76;105
111;108;100;100
104;108;108;119
85;68;92;102
111;95;72;64
72;111;111;111
119;111;111;111
80;88;112;127
119;95;92;72
104;117;108;96
88;104;119;93
80;117;119;127
119;125;111;95
80;100;124;127
119;84;84;88
112;108;96;100
96;84;68;68
102;111;95;64
108;111;64;80
100;108;96;92
80;76;84;95
109;103;88;92
88;88;88;92
92;88;84;92
95;107;95;79
64;100;111;72
64;80;109;111
100;100;96;96
88;84;84;84
84;84;80;84
107;79;56;80
92;102;103;103
111;64;80;106
103;100;92;76
64;84;95;111
69;76;96;111
95;95;106;80
64;92;111;111
111;119;111;103
72;104;116;119
111;100;96;96
100;88;80;64
80;92;111;95
79;64;88;100
94;111;111;111
72;84;96;96
80;111;111;95
68;100;104;119
111;79;72;88
111;111;96;84
100;111;111;119
89;95;84;76
72;88;100;119
95;95;68;72
96;111;79;64
92;111;95;73
76;92;96;84
88;108;111;111
111;111;92;80
80;119;95;76
64;84;119;111
77;76;100;111
119;87;80;100
111;104;88;92
100;88;92;111
111;108;119;95
68;84;92;96
100;102;92;88
84;80;80;92
111;100;80;72
76;95;111;95
76;64;72;80
84;80;80;84
95;95;92;100
92;111;64;80
94;108;106;92
76;64;64;76
108;94;80;68
64;64;84;95
95;95;95;76
64;64;72;84
103;87;68;64
72;92;95;63
64;72;84;80
84;95;95;111
95;95;76;64
68;92;88;102
109;111;95;95
111;111;111;89
80;122;119;127
127;111;80;88
112;108;96;96
104;100;92;88
111;111;87;64
84;111;111;111
95;95;68;84
84;88;80;72
80;109;95;95
64;64;80;92
108;107;109;111
111;111;68;80
88;100;111;111
111;72;80;88
100;100;92;94
84;80;76;80
84;92;92;88
84;76;64;68
72;95;95;63
64;84;92;103
95;95;79;68
64;92;108;103
78;68;80;88
103;111;95;95
68;64;72;80
102;95;64;64
72;84;88;80
92;95;79;56
72;92;107;95
68;52;64;64
88;95;69;64
64;72;72;92
95;95;87;87
111;92;80;96
95;64;64;72
100;79;64;72
104;106;111;111
95;111;84;72
96;111;111;104
116;111;95;87
76;72;80;84
92;100;84;80
100;92;88;92
103;100;80;64
64;95;95;79
64;64;84;109
95;103;79;72
96;111;104;96
119;119;111;95
72;84;104;123
111;95;72;80
108;103;72;80
96;92;80;88
108;100;84;80
84;111;77;64
80;80;64;72
102;92;84;72
68;76;64;64
64;88;95;95
103;87;60;64
84;68;64;64
72;80;80;95
95;68;64;72
92;88;84;95
95;92;72;68
80;94;92;92
95;80;68;52
64;80;95;95
56;72;80;80
80;72;64;48
64;80;86;95
95;71;52;64
64;80;95;95
95;95;107;111
102;88;84;100
111;92;68;68
79;87;93;87
64;84;111;109
100;72;64;72
72;64;64;64
76;95;95;95
92;92;109;111
111;101;80;80
100;104;111;91
64;116;111;95
64;96;108;111
111;88;80;84
96;88;80;76
88;80;84;95
105;111;95;95
93;68;92;104
119;79;64;80
88;102;111;111
111;111;92;100
96;88;84;88
96;84;72;72
111;109;103;92
76;80;80;84
109;103;92;84
76;84;100;103
64;68;92;109
111;111;111;95
76;68;68;64
76;84;76;72
84;95;109;111
95;111;111;95
68;104;127;95
68;88;111;111
68;96;119;111
107;76;88;100
116;104;100;117
119;124;108;84
72;96;119;119
125;119;112;108
100;96;96;104
118;119;111;93
76;100;108;108
104;110;100;92
80;92;108;111
111;118;100;88
96;104;100;96
111;87;64;88
119;95;64;80
104;111;111;117
119;119;96;88
96;108;88;76
88;100;103;92
84;92;103;92
68;80;88;101
108;111;110;111
111;119;119;127
127;127;120;100
104;108;112;127
107;72;96;116
119;100;100;112
119;125;125;103
111;127;127;108
96;108;112;124
127;125;127;127
116;96;92;90
80;96;119;127
95;80;80;96
123;108;80;68
80;96;104;96
100;111;111;119
119;110;96;76
76;76;64;64
76;80;84;92
80;64;64;72
88;95;95;103
92;68;68;84
95;95;88;76
109;109;95;76
95;111;111;100
110;104;110;117
125;116;96;84
92;96;88;92
88;88;101;111
64;92;111;79
64;72;92;92
84;80;80;86
111;56;64;100
56;80;80;80
80;95;95;95
103;111;111;76
64;84;118;111
111;111;100;96
88;88;80;76
88;84;84;84
88;84;68;64
76;76;72;76
80;95;92;72
76;64;80;95
87;95;109;111
79;72;80;88
109;104;111;95
76;88;111;119
117;116;119;125
127;111;92;80
96;127;127;109
80;124;127;84
80;96;108;126
103;84;72;80
100;104;104;108
108;108;119;111
68;100;125;119
111;119;108;84
95;95;76;88
127;111;95;81
84;119;119;119
112;96;100;127
87;72;92;104
108;88;84;96
111;119;119;113
125;72;100;127
111;80;80;92
88;80;84;96
96;105;88;88
94;80;72;88
108;111;108;111
110;96;88;84
72;92;100;88
76;72;80;80
80;95;95;76
56;84;109;79
64;68;92;103
95;64;80;94
103;84;76;72
88;68;72;103
95;103;88;84
92;88;84;92
92;80;72;76
84;76;64;72
95;95;92;92
84;72;72;92
95;69;64;64
72;68;89;95
87;79;64;84
108;94;80;64
64;64;72;68
72;68;80;95
71;52;52;72
94;88;88;92
95;92;80;72
80;68;64;64
76;89;86;84
95;76;68;84
95;95;95;80
88;72;76;76
72;64;64;76
92;80;64;64
68;93;95;95
95;68;79;95
68;68;79;74
56;64;92;80
80;109;95;79
79;64;84;92
102;108;109;111
95;87;68;64
80;94;103;109
111;111;92;72
64;84;94;111
79;92;111;111
111;87;95;92
76;96;127;103
85;72;96;119
95;72;84;111
119;111;111;111
127;127;127;125
104;100;88;80
92;96;92;88
110;111;111;93
68;108;119;127
93;80;96;108
125;127;127;127
123;85;88;104
127;127;127;121
108;100;96;96
112;108;108;111
122;124;119;124
121;88;119;100
88;96;110;123
125;108;100;112
108;88;76;72
96;109;108;111
117;111;119;112
116;100;80;72
80;88;111;95
64;84;92;104
102;76;64;72
94;80;64;64
88;95;103;103
108;76;91;111
100;92;96;100
88;80;84;92
84;80;72;80
103;95;60;64
72;103;95;64
68;76;88;100
95;56;64;72
88;94;102;95
111;71;64;68
92;88;76;72
76;103;95;79
77;64;84;94
100;72;64;48
72;68;72;95
95;52;64;64
80;80;80;88
86;80;76;72
68;52;48;64
76;64;48;40
56;64;64;78
72;82;72;76
76;68;64;48
56;80;79;68
64;48;40;40
64;64;60;56
87;87;79;68
64;87;86;64
52;52;86;95
95;79;87;66
64;80;94;111
111;87;64;80
92;80;72;76
103;95;87;64
68;84;109;95
95;95;78;64
84;84;84;80
72;76;80;72
64;64;76;89
86;68;64;48
64;80;87;88
88;76;68;76
84;68;48;48
68;95;95;95
103;94;76;68
80;95;95;94
84;68;68;68
64;68;80;87
54;68;95;71
48;68;72;86
92;84;68;72
80;92;64;52
52;80;95;95
79;60;56;48
64;72;80;80
80;84;84;84
95;95;95;103
88;68;80;100
111;111;111;111
88;80;80;80
88;76;64;76
80;76;84;93
88;64;79;72
79;84;64;79
95;64;71;71
52;72;84;92
95;95;88;88
111;87;64;64
64;84;111;95
79;64;80;88
106;100;92;100
94;76;76;72
84;64;66;60
72;103;95;103
88;76;76;88
92;76;80;88
103;95;69;64
111;60;64;76
95;84;72;72
64;72;76;88
95;88;72;72
80;95;95;95
80;72;84;103
95;87;71;64
76;72;64;52
64;76;95;79
48;80;95;95
92;80;84;103
111;87;64;68
88;96;88;84
88;80;76;92
103;95;87;95
107;119;111;95
76;108;127;127
119;116;88;116
88;119;96;80
80;80;96;111
108;108;92;92
100;96;80;72
84;92;84;88
76;64;64;64
76;80;76;76
84;68;72;84
84;88;84;76
76;64;64;64
68;64;64;56
76;87;89;88
92;80;88;92
95;80;68;64
76;76;72;72
64;52;48;64
95;47;64;72
92;95;95;79
65;64;84;71
64;64;72;92
95;88;95;101
103;92;68;64
64;92;95;84
72;64;64;52
64;56;76;95
95;52;64;72
103;63;48;64
84;92;80;64
64;68;72;68
64;48;40;48
72;78;72;68
76;64;48;52
64;68;95;71
63;64;52;52
88;95;87;95
95;69;64;76
80;64;64;72
103;52;52;64
80;80;95;95
79;68;92;107
111;108;100;84
72;80;72;76
101;95;108;88
80;64;64;76
76;64;48;48
56;64;76;76
64;64;64;52
68;82;72;64
64;56;48;48
64;68;87;79
44;48;64;80
84;68;64;64
78;95;87;95
95;56;68;88
101;103;103;111
111;95;109;111
111;111;103;125
108;96;80;88
96;125;111;82
80;88;88;102
111;111;96;88
96;102;100;100
92;111;119;119
119;111;95;76
80;96;116;119
119;111;111;127
88;100;127;127
95;96;100;118
127;124;116;116
127;124;126;120
118;108;104;104
118;108;100;100
92;92;108;111
68;80;96;109
117;95;78;68
64;80;84;88
102;103;100;92
110;111;111;111
95;68;72;88
111;111;108;111
119;111;95;111
109;80;116;111
95;76;100;125
111;80;104;123
127;123;127;127
125;84;96;120
111;80;108;119
104;84;111;88
104;80;80;92
92;72;95;76
70;64;64;80
107;103;84;88
88;84;76;76
88;80;64;56
48;64;84;84
64;56;63;63
79;53;64;95
79;72;79;48
64;48;48;48
68;78;76;95
87;71;61;64
80;84;84;92
103;95;108;96
88;68;74;76
64;76;95;103
100;88;84;94
100;94;84;76
84;80;84;84
76;68;80;94
103;75;56;72
95;95;79;69
64;72;92;92
101;110;111;93
64;84;104;103
102;72;68;87
103;111;111;108
104;92;88;92
88;100;111;87
68;64;88;105
109;94;72;80
80;76;80;95
111;64;64;64
76;72;72;88
95;48;68;80
86;86;84;94
103;95;95;111
110;111;108;84
72;72;88;111
111;106;111;104
92;76;103;84
72;76;76;92
111;111;79;64
96;111;77;64
88;104;101;104
96;84;84;88
84;64;64;64
76;64;52;48
72;68;68;68
76;80;76;68
76;68;52;48
52;64;64;68
76;87;72;64
48;48;64;78
79;40;64;76
85;87;48;48
64;52;48;40
48;52;48;68
78;79;72;64
64;70;68;64
68;84;95;95
72;64;56;48
64;64;52;56
64;64;64;68
95;44;64;93
88;72;64;64
64;64;64;72
64;72;76;72
64;56;64;64
48;40;48;64
79;86;87;91
72;64;48;48
44;48;64;86
93;95;92;84
84;92;95;95
95;95;111;111
100;76;68;68
80;84;80;80
92;84;76;68
76;80;94;95
103;70;64;84
109;79;56;72
84;88;102;111
95;71;64;68
100;95;79;64
68;64;64;92
95;64;84;111
109;111;111;78
72;80;80;80
84;92;88;84
105;95;64;72
108;95;103;104
88;72;64;64
84;72;56;64
86;76;64;64
64;64;84;95
63;64;84;92
80;64;68;84
95;64;84;95
95;111;95;111
96;72;68;79
79;64;76;103
87;72;94;111
111;95;64;80
88;100;88;88
111;95;78;64
88;94;88;92
111;95;71;64
76;80;84;92
92;88;88;84
92;88;76;68
68;68;64;68
72;64;48;44
56;52;48;64
56;40;40;48
52;78;79;55
40;64;76;92
95;95;95;87
64;80;109;111
111;95;91;68
100;119;111;111
84;76;96;118
125;76;88;116
119;119;103;84
80;80;111;109
109;68;88;96
119;64;80;108
119;111;95;72
100;111;111;111
90;72;80;88
104;110;104;108
119;111;119;95
72;88;104;111
95;119;127;127
124;108;108;124
127;111;80;80
96;108;111;96
96;96;84;100
108;118;119;117
104;96;92;119
111;68;96;100
92;76;64;68
64;72;111;56
80;84;84;94
92;109;100;80
72;80;84;88
88;92;95;95
84;92;103;111
93;72;100;111
111;95;72;64
96;108;111;108
108;108;100;104
116;109;95;95
91;76;96;119
119;111;127;127
127;120;96;96
104;127;95;76
84;96;92;96
92;111;104;96
84;104;119;111
117;125;125;119
112;100;88;80
92;96;100;100
96;84;80;88
92;92;94;92
100;94;92;92
76;68;72;84
107;79;56;64
80;84;84;88
72;64;64;64
76;76;72;84
95;95;95;80
88;95;52;64
80;95;95;56
64;56;52;64
84;95;95;95
95;95;110;92
72;64;64;64
68;64;64;68
80;84;94;95
95;87;79;79
73;64;72;92
108;79;64;76
108;95;68;64
88;92;80;72
72;64;64;92
95;52;64;80
88;103;95;68
64;64;72;84
92;94;80;76
84;95;95;80
76;76;68;64
80;95;95;95
71;64;84;95
107;79;64;92
111;64;64;88
111;64;72;92
111;87;64;72
96;95;95;77
64;80;92;100
94;92;84;80
80;76;80;84
76;68;72;92
95;48;68;94
95;87;95;95
111;64;80;102
111;87;64;72
96;108;111;111
100;88;111;111
119;119;123;127
111;80;96;116
127;94;80;72
100;127;87;72
96;108;111;119
108;100;108;119
125;95;76;100
124;93;72;100
116;111;89;72
80;88;92;100
88;72;72;92
95;64;80;111
87;64;88;111
64;64;72;84
103;95;79;64
64;64;64;52
64;80;84;92
92;95;87;77
64;64;68;80
88;80;64;64
84;95;88;76
64;52;71;92
64;56;56;64
84;90;88;84
76;92;95;95
95;64;80;111
95;111;111;119
127;90;72;84
108;117;104;118
125;87;72;96
109;116;118;109
108;125;127;95
80;80;88;119
119;72;72;68
84;88;92;100
111;93;68;68
88;110;111;109
84;87;88;68
79;95;111;95
87;72;108;111
111;95;79;68
88;88;88;84
92;84;68;72
92;109;95;76
64;68;72;80
80;103;69;52
72;80;76;72
80;79;48;72
76;84;92;88
95;87;87;87
95;109;92;72
64;64;64;76
101;95;80;72
84;95;95;87
64;72;92;111
108;111;119;119
117;108;100;100
100;92;88;94
92;84;76;64
80;103;103;111
95;79;64;68
92;95;64;64
64;64;88;111
95;64;64;80
95;103;100;100
94;109;111;111
96;84;96;111
111;64;96;106
111;108;84;84
96;111;111;95
95;68;80;88
108;77;64;80
111;77;64;92
111;78;64;100
111;95;95;79
64;72;96;111
111;95;72;64
80;84;94;100
104;95;64;64
104;64;68;76
72;72;88;95
92;95;88;84
92;111;79;77
64;64;64;64
84;94;95;111
109;87;64;88
111;68;64;72
94;95;87;68
64;88;103;109
111;64;76;84
84;80;84;98
111;64;64;92
111;64;68;88
111;64;64;72
108;77;56;64
92;95;79;71
64;76;100;95
93;64;80;84
100;111;95;95
64;64;80;76
80;84;101;111
95;109;95;68
96;100;92;102
111;73;64;64
64;64;72;84
88;79;64;88
111;68;64;68
95;68;64;68
92;95;80;64
68;64;48;48
64;76;84;95
95;87;79;95
95;95;68;64
88;106;103;68
64;72;80;101
102;95;64;80
111;64;72;88
88;94;103;103
111;95;87;64
80;88;100;103
94;88;84;84
84;76;80;92
103;87;79;56
80;95;95;71
64;76;92;103
111;87;64;64
92;111;64;72
108;79;70;64
80;104;106;88
80;76;72;84
103;95;68;64
84;95;66;64
80;88;92;111
111;95;76;64
100;111;119;111
116;95;72;100
127;118;96;88
104;111;78;72
92;96;92;84
92;95;79;85
64;88;111;111
111;111;119;76
76;80;104;119
123;111;92;80
88;122;125;116
96;96;96;104
108;100;119;111
72;72;68;64
88;92;102;84
72;64;64;72
92;88;80;76
95;56;64;80
72;64;68;80
92;95;87;76
52;64;76;80
95;71;48;64
68;68;88;94
95;48;68;92
95;95;95;71
64;64;64;80
88;92;84;88
95;60;64;64
84;95;60;52
76;79;56;64
92;95;77;64
72;84;103;95
95;64;64;72
102;95;79;87
95;93;84;93
95;109;111;92
72;80;88;96
100;111;111;111
119;127;127;127
127;127;111;111
111;95;84;104
127;111;109;84
80;96;118;127
127;127;84;96
108;112;88;72
116;64;84;104
104;100;92;88
96;111;65;80
100;111;111;100
88;117;111;111
76;72;84;100
96;111;108;88
80;76;80;84
100;95;71;64
76;100;111;109
111;111;110;84
76;95;95;95
95;111;127;92
80;96;104;104
100;95;64;88
111;103;87;64
96;119;111;111
111;111;124;125
127;127;127;127
101;94;84;100
96;96;110;111
107;72;84;127
111;111;95;88
80;88;100;100
100;119;95;84
76;72;80;88
111;79;72;64
80;96;109;95
87;73;64;92
104;111;100;80
84;108;110;92
88;92;111;111
111;87;64;80
111;119;111;92
76;103;119;100
80;80;92;100
100;111;111;117
109;92;84;80
88;95;64;76
80;105;95;64
76;111;95;68
64;76;88;80
88;63;64;94
103;111;111;94
84;76;80;80
92;107;107;88
84;80;72;72
80;80;76;84
93;79;52;52
72;94;84;72
76;95;95;95
88;72;64;80
80;92;80;68
80;84;76;64
80;44;64;95
87;77;71;48
80;79;52;68
95;95;103;100
88;108;111;111
108;110;119;111
95;72;92;104
104;111;119;111
84;85;93;91
111;125;104;80
80;72;64;68
64;64;84;111
56;64;80;80
72;88;103;108
111;87;64;88
111;64;84;88
104;52;80;92
84;80;80;84
80;88;76;64
72;88;95;95
87;79;64;68
92;109;111;111
103;95;79;64
80;108;104;92
80;80;76;68
68;72;76;86
95;52;52;64
72;95;95;95
103;103;108;111
79;72;64;72
100;64;64;72
76;92;88;103
94;109;111;109
109;68;76;100
119;109;95;103
111;127;127;127
120;124;127;127
127;127;127;104
96;127;119;103
119;127;112;96
126;95;84;80
100;112;127;111
72;96;100;117
127;91;93;109
95;123;96;86
119;116;100;88
96;124;111;87
76;72;88;111
111;95;95;68
104;119;103;85
72;80;96;111
119;91;76;64
96;119;85;64
80;101;102;88
96;109;64;72
72;72;72;76
92;52;64;68
80;84;68;64
52;64;64;64
76;95;95;92
95;103;95;79
64;68;64;64
80;95;61;64
76;109;95;93
64;64;64;64
88;87;56;64
84;87;62;52
64;72;92;95
63;52;64;68
95;71;76;79
52;64;72;72
68;95;95;52
72;95;65;52
64;84;95;71
52;64;84;95
92;80;72;84
111;63;64;72
80;92;95;109
95;95;91;77
68;72;104;111
79;64;64;64
64;64;76;95
95;95;95;79
64;92;108;111
73;68;64;103
111;64;72;92
111;95;95;69
80;92;96;106
111;111;119;119
119;126;112;104
104;111;84;84
72;80;92;100
96;111;64;68
84;111;95;87
68;80;96;111
104;104;100;117
119;119;122;119
100;80;72;68
88;111;85;68
72;100;111;119
119;119;123;112
112;104;88;88
100;119;111;72
80;96;111;119
109;111;119;127
118;100;100;100
116;125;125;116
100;112;127;127
124;118;112;112
112;127;127;127
127;127;100;88
96;120;120;127
127;127;127;127
126;128;112;104
92;100;108;108
122;91;72;72
88;111;68;76
96;111;95;78
80;119;64;80
96;111;111;111
104;119;111;78
80;100;119;119
95;72;80;88
88;119;87;68
84;117;111;119
119;111;94;72
88;100;104;100
116;111;111;119
96;96;110;116
112;127;111;93
84;121;119;111
119;127;127;127
119;127;127;112
104;124;116;108
104;120;120;119
112;127;111;88
80;80;92;96
100;104;84;80
104;111;92;83
76;72;84;100
111;95;73;72
96;104;84;80
76;88;93;88
80;80;95;95
76;95;111;109
108;111;92;80
108;111;93;68
64;84;111;95
95;111;119;127
119;93;80;76
96;111;111;109
103;76;72;96
108;111;72;84
119;85;68;64
88;111;111;87
76;68;84;92
108;111;85;68
100;111;111;95
95;108;80;76
95;111;119;108
96;127;111;89
86;72;80;92
119;95;72;80
96;119;111;111
79;111;108;100
88;76;68;72
92;95;87;64
64;72;64;84
84;107;95;77
64;84;111;79
64;72;92;95
88;102;95;64
72;105;111;111
79;84;119;93
72;119;76;80
104;119;111;95
72;96;96;100
96;96;96;111
119;125;85;68
84;100;111;119
84;76;79;87
68;64;72;92
100;111;79;68
64;96;95;76
72;111;73;68
96;95;70;64
72;95;68;64
88;95;93;79
64;84;111;111
111;119;119;127
127;119;109;80
100;127;84;88
108;119;68;88
127;111;119;122
104;100;84;92
100;111;127;125
127;84;76;100
112;116;125;127
111;111;92;84
80;112;127;127
103;111;80;88
116;127;103;84
80;80;96;111
116;127;124;110
88;96;104;123
111;72;88;108
116;119;87;80
116;111;72;92
119;119;119;125
118;108;88;88
96;111;68;88
108;108;104;110
108;125;111;92
84;80;100;119
119;100;80;72
72;84;88;102
111;103;88;72
76;100;111;95
64;68;84;92
92;80;80;76
64;64;64;76
93;95;92;92
107;95;64;64
68;80;84;111
79;71;64;88
88;88;102;111
95;87;70;64
64;80;92;92
109;95;87;74
64;64;72;95
95;87;64;72
80;103;111;95
93;103;111;95
68;88;119;95
95;72;72;92
119;117;96;76
80;104;119;95
68;72;76;88
100;96;103;102
92;84;64;78
95;95;95;111
108;88;72;72
64;88;111;95
68;68;64;68
92;95;64;68
84;94;84;68
68;92;95;94
109;79;64;84
111;95;72;79
79;71;64;72
103;87;64;76
88;108;103;92
80;111;95;95
111;111;111;111
111;119;127;125
126;127;127;127
116;112;108;108
108;112;110;117
127;121;96;84
80;84;104;108
111;111;108;84
80;80;84;80
92;84;105;111
111;64;104;111
95;95;87;64
96;119;119;87
72;76;88;88
92;111;111;111
91;95;111;108
84;72;68;80
92;110;111;108
104;108;96;96
100;108;111;111
119;108;88;72
68;64;64;64
80;95;56;72
92;111;95;95
95;69;64;72
100;111;87;64
96;111;95;85
72;80;84;80
88;106;109;111
87;73;64;72
84;88;94;95
56;80;111;79
64;64;64;80
106;93;64;80
100;100;103;111
95;110;96;84
76;80;80;64
68;94;95;95
95;111;111;111
111;100;84;84
119;95;68;72
92;111;111;93
68;84;96;100
117;111;111;111
111;89;72;84
110;111;95;76
72;80;88;103
111;109;96;96
96;84;64;64
92;109;103;96
100;105;100;80
80;111;79;64
80;104;97;80
64;80;84;84
92;94;80;80
103;95;95;106
102;111;100;84
92;111;111;117
108;80;85;111
119;110;96;110
127;111;109;92
80;108;121;127
127;112;104;108
108;108;104;104
96;96;104;117
111;119;108;96
96;92;80;80
104;111;111;95
111;111;125;104
84;84;96;100
123;95;68;72
84;117;111;100
84;88;104;111
105;102;92;84
80;92;84;96
111;100;88;80
80;111;87;64
64;88;88;88
76;72;88;88
92;84;64;56
52;48;80;95
63;54;48;68
95;79;63;52
64;88;86;95
95;60;64;88
111;94;84;72
64;80;92;103
95;95;93;64
64;100;111;77
64;72;100;111
111;111;111;95
72;96;123;111
72;76;80;100
111;119;119;104
80;96;125;95
72;96;119;111
123;111;103;111
119;127;127;127
120;104;84;80
96;127;95;87
72;80;88;96
100;111;111;117
104;100;88;84
100;95;64;72
88;111;87;64
84;111;69;72
88;103;104;108
111;111;111;117
110;109;96;96
111;108;119;108
92;96;100;109
119;119;100;84
84;119;111;111
87;68;76;92
108;88;76;72
72;80;76;84
84;84;76;92
111;103;111;111
102;80;68;80
88;111;95;87
64;64;64;84
107;111;111;72
80;108;111;111
95;73;80;96
88;96;111;111
119;100;88;88
92;111;119;111
96;92;88;104
102;92;80;72
80;103;111;92
76;68;68;76
84;95;95;71
64;64;56;64
80;95;95;95
68;64;64;100
95;95;87;64
80;111;95;79
68;64;64;68
88;109;109;111
103;111;111;95
76;72;84;88
88;100;111;85
64;72;76;80
84;107;111;108
80;80;84;92
111;84;64;64
64;80;95;71
64;80;103;111
111;95;64;72
88;111;95;87
64;80;108;111
111;88;76;109
96;80;76;96
111;95;77;64
72;80;80;92
107;92;84;92
106;111;95;64
80;111;68;64
80;106;110;111
119;110;110;116
125;103;95;111
103;80;80;76
72;92;111;111
109;95;103;103
76;84;104;119
119;96;80;111
110;96;76;68
88;119;79;64
88;111;108;108
104;96;110;119
111;88;80;84
108;111;109;95
81;72;80;84
96;111;93;79
64;100;104;109
111;111;80;79
76;64;72;88
111;84;68;72
80;80;72;76
72;88;95;95
80;84;103;108
111;88;72;80
94;92;72;64
64;64;72;76
72;88;95;87
87;94;68;64
76;88;100;111
95;79;64;64
96;111;95;95
93;111;108;127
127;127;127;127
127;112;96;84
96;127;84;76
96;127;119;118
116;124;124;112
108;108;104;100
116;125;122;112
116;122;127;127
127;127;103;80
120;127;95;80
100;127;127;127
126;96;84;84
80;96;108;127
95;93;72;88
104;111;108;116
110;96;104;111
111;91;72;84
116;109;92;100
119;95;87;79
72;104;119;93
72;100;125;111
76;68;80;108
111;108;96;88
96;111;111;108
100;96;80;72
100;111;111;111
85;80;92;108
95;68;88;109
111;110;96;80
76;119;73;64
88;109;88;84
88;94;103;109
101;88;68;64
68;64;52;80
111;95;95;111
96;96;100;102
108;102;104;92
84;111;119;111
111;127;111;103
85;80;84;80
117;111;78;68
80;80;72;88
111;111;95;79
72;64;64;68
84;88;92;92
84;80;80;101
95;95;95;77
64;84;84;100
80;68;64;64
80;94;95;101
109;109;108;105
104;80;68;79
64;64;100;103
95;111;100;92
84;100;111;111
93;72;68;84
109;108;108;104
92;72;68;72
80;72;64;68
76;64;48;44
48;48;52;64
84;68;64;64
68;92;95;48
72;92;95;95
79;79;95;102
84;84;111;111
104;108;119;119
119;119;127;112
88;88;100;116
119;109;80;88
116;127;127;127
86;88;96;127
119;103;95;95
111;117;88;87
111;116;88;80
104;116;119;116
119;127;127;127
127;127;104;96
96;80;80;76
104;111;119;119
87;80;84;96
104;96;111;119
111;114;113;118
112;80;95;95
72;76;96;100
119;104;84;68
68;84;103;111
111;119;119;127
119;118;96;88
100;108;118;108
96;80;96;119
111;119;119;119
116;92;80;76
84;116;119;119
108;88;84;104
119;111;111;125
112;120;124;125
116;104;96;96
100;117;119;119
119;111;111;125
103;84;104;96
124;122;118;118
116;127;95;103
95;80;80;88
108;111;95;72
100;111;119;125
119;127;121;100
84;80;92;92
100;119;111;111
109;95;76;80
100;119;111;125
127;127;127;127
109;84;116;127
127;108;96;96
127;111;103;84
80;108;124;127
127;109;95;84
84;116;127;116
104;112;127;127
125;127;127;127
111;84;100;118
127;104;92;88
100;111;82;72
100;96;96;119
111;119;104;92
96;96;110;108
111;119;111;111
103;84;88;116
127;110;92;80
80;114;127;103
95;119;112;112
108;96;88;100
119;125;127;127
95;80;96;104
92;96;96;92
92;84;84;92
96;103;102;100
100;88;80;84
100;92;84;84
88;80;72;72
84;95;95;95
88;80;84;80
92;95;94;103
111;109;100;96
84;80;88;92
111;95;95;64
72;76;80;76
92;95;92;100
88;94;88;80
76;80;72;76
72;92;95;95
92;68;56;60
52;64;84;84
95;93;72;72
88;95;92;76
72;68;88;95
57;64;72;95
95;52;64;92
95;109;95;79
68;76;94;100
88;68;64;64
92;111;79;56
84;111;95;95
111;111;111;111
72;96;109;119
119;108;96;88
122;85;72;96
119;92;72;64
72;72;76;80
80;64;52;64
68;88;95;79
64;56;52;48
64;84;95;95
94;76;64;56
64;48;48;64
84;68;56;52
78;79;45;44
64;64;68;48
40;44;48;68
84;72;52;48
76;79;36;48
64;68;68;64
72;72;68;87
87;64;64;48
48;56;68;87
87;95;95;92
68;64;72;76
95;95;84;68
64;72;80;88
95;95;77;52
64;72;64;64
76;64;48;64
92;95;95;95
103;100;80;64
64;72;100;103
109;84;64;64
68;84;76;80
88;94;107;95
95;88;64;64
64;72;72;64
76;95;109;79
64;72;84;95
103;95;79;79
68;76;84;102
111;92;72;64
76;95;111;87
76;95;92;72
72;72;76;88
92;95;101;103
95;85;95;72
84;111;104;92
88;92;88;92
111;95;111;111
119;125;108;96
88;104;104;88
80;84;84;80
84;95;109;95
111;88;68;65
64;80;100;92
80;72;80;102
79;64;84;88
92;88;95;111
109;95;72;64
80;80;80;72
80;92;95;77
68;80;95;100
92;92;88;111
79;72;92;111
95;111;116;92
84;92;111;108
96;96;104;102
119;95;76;72
92;110;119;125
111;111;95;72
100;104;100;109
127;127;119;76
100;111;84;76
72;92;109;111
68;72;84;108
111;96;84;84
104;105;84;76
80;80;88;111
109;111;111;117
125;86;72;96
111;111;111;85
68;104;125;111
95;72;96;100
116;123;119;127
111;84;80;92
124;117;109;96
84;100;111;91
68;88;92;111
108;111;111;109
80;68;88;119
93;72;92;111
111;95;95;76
72;88;119;111
84;80;84;92
88;80;76;84
108;84;64;87
107;100;72;64
64;80;100;111
79;64;68;76
94;92;108;109
111;106;104;96
88;84;100;102
88;100;109;105
92;72;95;84
64;76;84;102
95;72;93;72
94;78;80;86
87;77;80;84
76;84;84;84
76;80;87;72
84;85;72;84
79;76;90;68
84;68;95;109
111;95;77;72
92;104;111;95
68;84;88;109
111;64;88;106
96;68;64;84
94;94;88;80
88;84;84;95
94;111;95;68
68;100;111;96
84;88;72;64
80;92;102;103
100;108;111;111
111;100;80;68
64;72;92;111
87;64;72;84
80;80;92;95
109;109;111;111
119;104;84;68
80;88;108;111
111;111;119;118
104;80;68;80
100;111;95;87
68;92;96;92
80;100;108;108
109;100;111;108
84;80;72;76
92;80;80;88
95;79;64;88
95;92;84;64
52;95;79;48
84;92;95;95
95;109;111;111
111;88;80;84
84;88;80;80
76;64;64;68
76;80;80;84
84;72;72;84
95;92;76;76
76;72;76;88
95;103;95;71
64;84;92;92
80;84;95;95
95;77;79;87
76;64;72;92
109;111;87;64
88;108;111;109
84;80;92;100
100;102;80;68
102;100;100;111
100;88;76;76
100;103;102;111
109;102;125;87
80;108;111;87
72;88;119;93
68;96;105;84
84;92;100;102
111;93;87;76
72;80;108;111
111;93;76;64
80;111;95;72
80;88;92;72
64;56;52;64
80;80;92;92
88;84;72;84
103;95;95;95
111;111;119;108
88;72;70;68
84;111;111;111
116;100;96;88
100;119;95;68
80;84;102;111
76;80;100;109
92;72;64;64
80;111;79;64
80;92;103;108
108;92;68;64
64;80;103;111
103;108;100;104
92;68;72;76
84;80;84;92
95;92;95;100
102;104;111;111
111;87;72;100
119;119;119;127
125;117;96;96
108;127;95;80
104;104;96;88
96;118;119;111
125;116;96;80
80;100;119;111
76;80;84;92
108;111;117;119
111;111;119;104
108;104;112;108
119;116;96;84
100;100;100;110
109;111;116;119
119;127;127;127
127;104;88;80
80;92;117;119
100;76;68;68
80;111;119;111
119;95;76;72
80;92;80;80
84;84;92;95
84;68;64;64
76;64;64;76
76;64;64;68
87;68;64;56
64;72;76;86
80;56;48;49
46;48;64;84
95;63;44;68
90;95;95;95
95;107;96;80
68;84;103;109
79;72;100;111
95;117;108;100
100;84;88;102
111;111;111;119
108;84;72;72
100;111;111;111
125;127;127;127
127;127;127;120
112;116;127;127
125;127;120;112
116;112;100;104
127;103;76;92
125;127;111;80
96;122;127;119
103;96;104;112
108;96;80;96
118;111;119;108
92;104;100;88
96;100;100;100
104;119;95;76
80;88;111;119
111;84;68;72
84;80;96;111
95;64;80;96
111;111;111;100
92;92;96;111
78;84;119;111
68;84;100;119
111;111;119;87
72;96;108;119
119;93;111;84
92;100;119;111
72;96;100;104
100;110;108;111
119;123;119;108
96;112;119;127
127;80;96;112
127;111;119;127
127;127;120;124
127;127;127;111
96;112;127;127
108;96;116;116
104;96;80;84
96;109;119;113
119;125;122;127
111;125;80;88
112;110;108;118
125;127;127;111
111;92;92;80
108;116;112;96
88;88;88;96
100;92;76;64
72;92;111;109
100;80;80;92
108;111;87;64
64;96;95;87
64;76;84;93
103;80;64;64
80;84;88;95
95;88;80;76
68;64;48;64
76;79;60;56
48;64;92;95
79;95;103;103
100;102;96;108
100;92;100;92
92;84;80;92
108;111;111;111
111;68;80;88
100;111;95;95
93;72;72;88
110;110;96;92
92;88;80;80
88;92;76;72
80;72;64;64
64;64;64;64
72;78;72;68
64;56;56;72
84;84;80;68
64;52;64;84
89;95;95;95
95;64;64;64
72;64;64;72
68;72;76;89
92;88;84;80
84;84;68;68
72;52;44;48
64;92;90;80
95;79;52;64
84;95;95;71
64;68;72;72
80;95;95;71
64;80;106;95
87;64;80;111
95;64;72;92
100;94;84;80
88;94;111;95
87;69;64;80
88;100;103;88
72;64;80;103
109;109;111;111
95;68;84;96
111;111;111;119
123;108;88;80
84;92;108;111
110;96;100;96
88;80;68;72
84;109;87;64
72;76;94;111
95;64;64;80
94;111;79;64
110;111;87;76
68;80;111;111
117;111;116;108
114;127;119;76
96;127;89;80
117;127;127;127
93;96;118;127
127;86;88;76
88;112;127;76
96;100;96;96
100;96;80;84
100;111;70;68
88;84;76;64
68;72;72;76
95;95;95;95
95;64;64;72
72;80;95;103
103;111;87;64
76;92;92;100
111;79;64;106
111;79;64;84
104;111;111;111
111;127;95;72
92;88;92;100
119;111;95;68
96;119;119;127
127;112;96;88
100;88;76;84
100;111;111;119
111;64;88;125
109;95;95;80
80;92;108;117
123;77;72;68
72;80;100;111
85;64;80;92
111;64;84;84
80;68;68;94
103;95;95;87
64;72;88;100
96;100;111;95
76;68;96;111
111;76;72;64
72;72;88;101
109;64;64;72
94;92;92;92
103;111;87;72
64;92;92;108
111;64;88;105
110;111;111;119
119;123;117;127
127;80;80;88
110;119;119;100
84;80;72;76
80;80;80;88
80;64;48;72
95;64;95;77
64;76;76;84
94;84;76;88
103;95;108;111
111;68;84;88
84;80;80;84
95;68;108;87
64;80;108;95
64;72;88;96
101;92;64;64
77;71;56;72
111;87;87;79
64;68;72;72
80;84;76;80
95;71;48;64
84;95;71;52
80;95;95;95
103;109;100;102
92;84;84;92
96;80;64;52
64;68;80;95
95;84;95;103
109;79;64;76
92;111;111;111
111;116;117;127
125;124;104;100
100;96;96;88
92;96;102;96
100;92;80;80
103;95;71;64
80;84;88;109
111;79;64;76
84;72;72;94
95;65;56;76
88;84;80;94
103;94;76;68
80;80;76;72
80;92;88;94
102;79;60;64
92;71;52;76
95;87;60;64
80;103;95;87
64;72;108;111
104;111;108;110
116;119;119;122
112;100;104;100
88;80;88;88
88;88;72;64
64;64;68;84
95;56;64;76
80;80;80;85
88;84;84;84
72;52;48;48
64;84;93;84
68;52;44;48
64;56;40;40
40;36;48;72
87;79;95;95
76;56;63;77
95;80;64;56
48;52;48;48
64;84;84;84
89;95;92;80
84;68;64;64
68;84;84;80
95;79;56;48
84;95;95;95
60;64;92;95
87;64;68;72
80;88;80;76
80;76;64;68
72;68;64;68
76;95;79;48
48;48;64;94
95;75;56;48
68;80;85;72
52;77;92;76
64;64;84;93
93;95;92;95
101;102;111;95
79;64;80;96
94;100;92;80
72;64;64;84
95;95;80;68
72;64;64;68
80;84;72;72
68;64;76;95
71;68;56;52
95;79;57;48
64;68;64;64
84;95;79;71
52;76;103;95
71;64;64;72
72;52;48;48
64;64;68;64
68;92;95;95
95;95;95;103
88;72;64;64
80;84;95;111
71;64;84;84
80;97;95;56
68;84;88;92
72;64;84;95
95;95;107;102
84;68;64;80
80;72;64;80
95;54;52;68
84;76;64;64
86;71;44;64
92;95;95;88
72;64;64;68
80;79;48;64
94;56;48;64
84;95;95;95
95;56;84;111
68;64;80;100
111;64;80;84
84;80;64;64
92;95;95;92
109;103;94;110
111;70;64;72
105;111;95;95
93;79;79;64
80;92;111;111
76;64;80;92
102;111;95;73
64;80;110;111
95;95;91;95
111;111;125;127
127;80;96;127
111;80;88;96
108;108;88;88
100;111;95;76
68;72;80;88
92;111;95;95
68;68;80;92
100;109;87;95
79;80;108;95
68;76;100;106
92;72;64;80
111;64;80;100
88;76;68;68
80;101;103;109
108;80;72;109
111;87;68;64
92;111;95;91
93;64;88;102
100;100;94;92
88;92;109;108
108;108;96;80
80;84;96;111
111;111;87;64
96;118;111;95
78;72;72;80
100;95;64;72
92;111;95;95
68;72;110;111
87;76;117;85
80;84;92;100
88;80;72;72
92;52;64;72
76;92;92;88
95;95;103;92
76;76;88;101
111;64;64;80
103;111;111;95
68;72;100;100
96;84;80;72
76;109;95;87
71;64;64;88
93;109;111;111
96;88;92;110
111;87;64;72
88;111;111;95
111;91;68;80
108;119;79;68
80;108;119;119
110;92;72;64
96;111;95;95
68;80;100;109
104;104;92;88
84;80;80;88
103;95;79;64
84;111;109;111
111;95;84;72
108;111;95;111
125;119;127;127
127;127;135;127
116;116;100;96
92;80;68;76
100;111;68;72
96;111;111;111
111;93;68;72
92;119;111;111
119;116;100;96
88;84;88;92
111;95;87;64
80;92;103;88
72;72;80;92
103;94;94;111
95;64;80;84
96;111;111;111
108;116;125;119
80;88;126;85
88;127;95;76
80;92;104;119
111;111;116;84
111;96;76;79
68;64;76;88
100;111;109;101
108;111;85;72
111;96;96;96
88;80;72;64
76;94;103;95
64;64;68;84
92;80;72;72
92;95;87;65
64;68;94;103
111;64;72;92
109;109;95;87
64;80;111;109
96;96;80;84
111;75;64;80
80;94;109;111
95;64;72;88
111;79;64;84
111;87;69;79
111;106;84;72
72;88;88;84
84;84;84;95
111;64;64;68
88;95;95;95
76;64;64;84
109;87;64;64
88;79;56;72
76;80;88;92
101;95;68;64
76;92;102;109
92;92;96;111
95;64;72;80
109;73;64;68
80;103;111;111
95;95;111;125
127;108;96;96
88;80;72;88
111;87;64;80
88;103;111;111
111;95;95;84
76;80;96;119
95;68;100;111
79;64;76;88
111;111;111;100
100;109;119;111
119;95;72;80
92;108;108;104
108;109;92;84
72;68;64;64
72;76;84;80
72;68;68;92
95;52;64;84
95;103;111;105
111;111;95;64
92;111;79;64
96;108;111;96
92;111;104;92
88;111;93;64
80;88;92;96
103;80;64;64
72;103;103;111
111;108;100;96
105;119;95;72
88;88;100;111
111;95;72;64
92;111;111;119
119;119;111;95
84;80;96;100
96;96;96;105
119;87;68;68
72;84;109;111
119;111;111;72
88;116;119;119
112;84;72;68
72;80;96;111
95;79;68;79
64;64;64;68
80;84;72;86
95;79;87;95
77;64;80;88
111;95;87;76
64;80;102;111
95;64;76;88
80;68;64;72
84;95;95;95
76;64;88;92
111;111;111;111
119;110;88;76
80;92;111;111
119;111;111;111
95;111;103;84
80;96;110;116
116;127;127;124
127;127;127;126
120;127;120;108
100;104;100;104
100;119;123;127
127;127;111;92
84;96;112;127
127;84;80;80
80;92;108;111
116;127;119;127
108;112;108;108
112;125;125;104
100;116;121;112
100;80;95;108
80;68;72;84
84;84;80;84
102;95;95;64
68;64;68;68
80;103;87;71
64;84;107;95
95;95;111;111
112;79;72;92
108;111;108;84
72;84;96;111
77;64;80;111
111;95;64;76
111;79;80;110
111;92;80;80
92;111;87;68
68;72;80;95
106;111;111;111
108;88;84;96
108;111;111;111
111;76;80;110
111;72;72;80
88;110;111;111
111;111;111;119
127;103;80;80
96;119;119;104
100;116;119;111
127;127;127;127
116;108;120;124
127;111;92;96
127;127;116;100
104;127;127;118
108;96;84;88
108;111;84;72
80;118;109;72
92;119;119;104
92;84;96;88
84;92;88;92
111;87;72;64
111;79;70;64
72;80;84;80
72;64;64;76
86;95;95;95
79;70;64;80
105;111;111;111
118;119;112;96
80;92;117;119
111;111;127;127
127;127;127;124
112;127;111;127
124;96;80;80
100;127;111;95
72;104;116;110
110;119;95;76
100;127;95;76
72;72;64;80
119;76;68;72
76;95;102;92
92;88;76;64
64;80;76;76
64;64;76;92
95;57;68;80
92;95;70;48
72;111;79;52
76;72;95;95
95;95;80;80
92;95;95;95
95;95;85;64
104;68;80;105
111;95;103;95
68;88;96;102
119;79;72;96
109;100;88;84
96;111;111;111
119;111;111;127
127;127;124;124
120;127;94;88
127;111;80;100
117;112;116;127
111;111;95;80
96;96;100;100
119;84;72;92
110;111;119;100
88;125;111;119
116;96;76;76
64;64;76;92
92;108;108;111
77;64;68;80
80;88;93;94
94;95;64;64
100;111;109;111
108;111;111;77
72;96;111;117
108;104;116;113
116;104;92;84
108;111;68;88
116;111;108;108
100;100;109;104
108;119;79;72
100;111;111;111
64;96;116;111
79;76;108;111
119;119;119;103
80;80;80;84
104;92;80;68
72;84;105;111
111;111;119;110
104;108;96;104
116;111;119;125
125;112;122;118
104;108;112;120
127;127;92;80
112;111;72;92
124;95;72;80
100;110;111;100
88;96;96;92
100;106;111;111
68;64;88;102
109;111;79;68
76;102;111;95
111;119;119;122
116;127;127;108
96;104;104;108
96;104;104;88
84;102;111;108
111;96;80;64
64;64;68;88
92;94;102;111
95;64;80;111
93;79;87;91
79;68;96;108
111;95;107;119
100;84;84;88
96;111;111;87
68;68;64;64
84;107;100;100
88;103;92;80
88;95;64;64
72;72;80;94
84;80;76;76
88;95;93;84
92;95;70;64
84;94;108;111
95;107;111;119
119;111;76;80
118;111;72;96
96;88;76;64
68;92;102;102
111;78;64;84
119;64;64;80
110;111;85;93
95;103;64;80
96;111;111;109
104;104;104;116
119;111;111;125
127;124;120;104
96;92;96;100
127;95;72;88
112;119;119;122
121;127;95;76
96;96;88;100
111;111;87;72
72;92;100;96
100;104;92;76
68;64;72;95
95;95;68;64
84;108;111;95
72;64;76;84
102;111;111;119
103;70;68;80
88;111;111;111
119;111;111;72
96;117;117;100
84;80;80;110
111;119;84;68
96;111;76;72
111;111;111;91
72;92;104;100
104;88;80;80
94;105;102;88
92;111;108;80
68;64;76;94
111;95;79;64
76;111;73;68
96;111;111;111
119;117;100;84
72;68;84;111
111;111;100;119
109;72;80;96
119;108;92;80
88;111;92;80
80;111;109;108
111;95;64;88
119;87;68;68
80;84;103;104
108;111;64;84
104;111;74;64
72;88;111;111
100;111;111;111
100;100;80;72
84;111;111;111
119;87;72;96
116;95;76;92
92;104;108;111
111;111;119;108
84;72;80;88
104;111;95;76
72;119;111;111
112;116;124;127
120;119;109;80
84;96;104;119
119;118;88;76
88;96;96;104
100;110;111;119
111;119;127;127
108;108;112;104
108;118;108;104
108;111;68;84
110;87;68;88
104;111;87;64
80;101;111;111
76;68;72;87
72;68;64;76
102;95;64;72
92;111;111;103
111;103;87;68
96;108;96;92
104;111;100;84
72;68;68;92
111;95;64;64
80;111;111;95
109;119;117;104
104;121;127;125
127;127;124;116
124;127;127;127
135;116;96;80
76;84;80;68
72;109;111;111
87;79;68;92
111;111;92;72
95;111;100;105
104;111;117;111
113;125;127;127
127;108;96;96
108;112;112;108
104;125;111;95
95;111;121;104
96;116;116;125
125;116;100;88
92;116;116;116
116;108;100;84
96;111;95;91
68;88;102;111
100;108;109;100
92;68;64;64
72;106;100;84
88;95;100;103
100;111;111;119
119;119;127;95
88;127;111;92
80;80;80;95
91;72;80;88
88;92;102;111
119;111;95;82
76;92;116;117
118;127;103;72
96;104;127;111
72;76;92;92
111;119;111;119
119;111;111;111
103;108;92;84
112;95;84;110
127;127;127;127
127;127;127;127
127;127;127;141
124;112;116;104
112;127;127;127
127;127;127;127
127;108;96;100
96;96;96;92
100;111;111;111
84;84;72;96
119;93;68;88
108;100;84;84
84;92;100;111
111;111;96;80
72;92;111;111
111;119;119;111
119;127;125;124
112;108;100;112
116;127;127;127
119;127;126;124
120;124;112;108
126;103;80;112
127;127;127;119
119;119;92;92
84;84;80;84
125;93;72;88
100;119;111;111
95;95;90;72
104;111;79;87
95;85;64;88
92;100;108;108
119;96;84;84
80;88;100;111
111;111;92;80
92;92;68;64
68;84;107;63
64;109;95;69
64;84;92;84
76;72;84;95
95;103;96;92
88;80;68;72
80;88;95;95
95;71;64;80
101;109;111;95
87;68;68;88
111;92;72;64
64;84;92;111
95;95;111;111
117;119;119;103
76;104;123;124
104;88;96;104
125;125;127;127
124;127;127;127
127;127;120;112
112;96;84;96
127;127;127;127
127;127;127;127
116;116;126;127
124;112;112;127
127;127;127;127
127;124;112;100
112;127;127;127
112;127;111;95
84;80;88;96
108;114;111;104
100;108;118;104
100;111;108;108
100;114;111;64
104;111;76;68
80;111;68;72
106;111;111;119
125;92;76;68
68;68;68;80
94;102;84;64
64;64;52;64
86;84;84;80
80;88;80;76
80;95;95;95
92;111;64;72
111;95;77;64
72;92;111;111
104;84;80;92
111;95;64;68
92;95;76;64
102;111;111;76
80;119;79;68
72;80;84;96
111;95;95;95
76;68;72;92
111;106;80;64
64;64;64;80
103;94;84;84
88;95;92;84
84;80;92;95
101;111;95;71
64;88;108;103
92;111;111;111
111;119;118;100
88;96;108;116
119;104;104;100
108;108;100;116
109;108;92;96
116;119;108;100
92;92;111;95
76;72;68;80
102;111;95;92
87;68;68;76
88;100;111;95
68;64;72;92
111;95;93;64
84;84;102;111
109;96;72;64
72;84;84;106
79;52;76;111
69;64;64;88
103;103;92;92
92;102;111;111
111;100;80;68
92;102;104;111
111;119;119;110
96;116;127;127
125;104;92;80
96;104;96;96
119;118;112;119
114;112;116;127
107;95;76;80
84;111;125;127
95;72;88;117
112;111;103;87
80;119;125;127
112;116;112;108
108;104;116;96
80;84;100;104
108;96;80;64
64;84;111;95
68;72;96;111
95;64;64;76
92;111;111;95
64;80;80;100
111;92;68;64
92;95;93;95
70;64;80;108
100;110;111;119
111;104;80;68
92;119;95;64
96;111;64;88
104;106;92;76
72;92;111;79
64;64;64;64
84;103;101;92
84;98;111;111
111;92;72;95
100;96;88;92
104;110;111;111
103;111;95;76
80;116;116;96
96;119;87;72
100;111;119;125
127;119;109;86
96;127;127;127
127;127;127;119
92;96;100;118
127;127;93;80
88;116;127;111
95;95;95;103
80;96;118;118
122;118;112;116
119;96;88;100
121;125;121;124
124;92;80;76
68;80;88;100
104;76;64;68
73;64;64;88
95;95;109;111
117;119;125;95
76;76;80;88
100;111;117;119
119;122;116;119
125;127;109;80
118;127;127;118
112;108;108;116
112;104;116;119
103;123;96;88
116;125;127;124
127;127;116;112
100;116;127;127
127;120;100;92
120;127;127;116
108;96;104;118
127;127;127;127
100;108;112;116
112;100;96;88
100;110;119;119
110;88;84;88
108;95;72;64
92;108;100;100
102;108;92;84
80;72;84;80
88;103;100;111
95;68;72;80
92;108;108;92
84;80;80;68
88;111;95;109
95;111;116;96
96;88;92;96
119;111;95;95
85;72;88;111
119;116;110;104
96;104;111;108
108;127;111;91
80;108;125;127
122;104;88;100
117;123;127;112
108;100;118;127
127;127;127;127
111;111;95;84
100;124;127;127
124;104;88;80
88;116;119;95
76;72;80;110
119;123;126;125
127;116;108;119
127;127;116;108
108;108;119;110
104;116;127;111
80;127;119;85
96;112;127;127
127;127;127;127
111;103;88;96
108;108;110;88
84;104;119;125
122;96;80;72
72;88;111;111
108;80;76;111
84;72;64;64
88;110;111;111
111;103;95;72
100;119;111;79
72;72;92;111
79;64;92;111
73;64;64;64
72;84;93;84
80;76;80;93
103;102;111;95
95;64;72;102
111;111;111;79
80;119;119;111
95;95;95;111
95;95;111;127
124;88;103;127
127;111;89;96
124;127;95;119
127;112;96;96
104;108;108;92
72;80;111;111
111;111;111;84
80;100;127;95
72;118;119;111
92;92;72;88
104;110;125;123
112;104;92;80
84;117;119;111
125;108;96;80
96;92;100;110
108;116;119;95
93;95;72;100
119;119;125;110
84;104;127;127
111;80;80;80
80;96;104;110
111;108;100;96
100;104;108;111
111;119;119;111
119;127;127;124
116;124;127;127
119;127;141;116
96;116;116;119
119;108;96;80
72;84;96;92
88;80;92;84
88;102;111;95
68;68;80;80
94;95;95;95
95;68;64;80
111;111;111;72
92;108;116;108
104;96;84;88
96;80;72;76
80;80;80;76
93;94;103;100
100;109;111;95
72;76;84;92
92;102;104;111
100;72;64;64
72;111;87;64
68;94;111;111
95;76;64;68
80;84;76;80
84;88;95;95
95;80;72;64
64;72;68;64
88;76;80;84
76;72;68;64
72;64;64;64
64;68;81;91
95;72;68;80
80;95;92;94
95;80;72;68
72;95;95;103
87;68;64;76
101;108;111;87
64;111;111;111
95;109;111;109
76;80;84;110
119;95;81;68
84;116;119;95
78;72;80;88
119;111;111;111
72;80;108;119
119;113;119;127
111;111;127;116
112;108;100;100
116;127;111;95
80;92;116;124
119;125;127;127
95;88;88;96
100;104;108;100
96;76;72;72
96;111;95;79
64;80;111;111
111;77;68;64
96;100;119;93
64;80;100;111
95;91;87;68
84;119;95;64
84;119;95;68
88;96;96;96
92;80;80;76
76;84;72;76
92;95;95;95
68;64;76;68
92;84;80;93
103;87;76;64
68;92;111;111
77;76;111;95
64;96;100;110
108;111;92;72
64;72;80;80
88;111;95;79
64;92;111;111
95;111;100;80
72;111;119;111
119;121;100;80
68;96;111;76
72;96;111;95
64;127;72;72
92;111;111;92
76;96;100;111
111;108;110;111
125;125;120;96
80;72;72;76
96;119;87;64
80;92;100;111
95;95;111;96
72;84;78;64
104;100;96;111
95;64;64;64
64;76;84;103
95;100;84;88
111;111;95;87
87;95;119;125
127;127;127;126
116;108;96;88
104;127;87;72
100;118;108;96
108;100;100;111
111;88;72;88
111;111;119;111
72;72;88;92
108;92;80;72
80;103;111;95
72;80;100;111
111;111;93;76
72;96;119;119
119;96;76;72
72;104;119;111
92;88;100;110
108;96;84;72
72;92;111;95
95;108;92;96
111;119;111;92
76;100;111;76
72;88;88;84
80;76;72;72
100;95;79;79
64;111;95;87
64;68;72;84
111;103;111;100
72;72;80;84
84;80;72;80
76;95;95;94
76;68;76;80
80;80;95;95
64;109;95;71
64;88;111;111
87;76;100;108
96;96;100;111
95;76;64;80
109;111;111;108
104;92;92;104
111;111;111;95
68;100;119;127
119;118;100;104
119;108;96;88
118;125;111;95
80;104;127;127
119;127;112;100
96;104;125;127
127;124;112;118
126;126;116;116
108;88;80;80
84;92;100;100
108;102;96;100
80;72;72;68
80;94;94;92
88;72;68;76
95;95;95;87
71;72;88;108
111;111;111;108
88;76;68;76
84;102;111;109
80;68;95;108
88;100;111;104
96;92;84;68
88;107;111;111
95;95;87;64
88;104;92;92
100;100;102;111
111;95;68;80
119;119;116;108
100;96;96;109
111;119;125;127
127;111;109;111
109;84;118;127
127;119;84;116
127;103;76;96
104;123;125;127
118;96;80;88
116;113;100;113
116;110;117;127
125;104;88;80
92;100;96;104
108;88;72;72
88;84;88;101
92;84;95;101
111;111;111;119
119;104;104;96
80;88;117;111
111;93;79;72
88;100;119;123
119;119;118;112
100;104;104;96
104;92;80;80
72;84;111;95
111;111;111;110
96;84;88;88
109;111;111;119
100;84;88;88
100;96;80;64
64;92;111;87
64;64;72;68
84;76;72;64
48;56;64;68
64;64;64;76
95;95;79;95
64;87;95;84
84;88;94;100
103;92;80;76
72;95;109;103
88;70;84;78
92;72;68;76
88;72;68;68
64;76;84;72
64;52;64;76
72;64;68;95
79;71;52;52
64;72;76;80
84;68;64;68
93;87;79;60
64;84;107;95
79;52;72;84
94;95;102;100
111;111;109;64
80;111;111;111
111;119;100;88
88;96;116;116
119;118;121;127
72;108;127;95
86;84;80;80
68;88;119;111
111;95;76;72
88;96;100;108
111;119;123;108
110;110;116;127
124;104;80;84
103;119;121;116
118;116;104;96
104;112;122;110
96;96;96;92
111;95;103;111
119;111;111;87
80;110;119;86
80;100;104;88
84;88;92;92
84;76;80;80
88;80;80;95
95;103;105;105
108;92;80;76
100;111;111;111
111;76;68;80
108;119;119;125
123;112;112;96
84;92;100;116
111;76;72;108
111;68;80;96
111;95;78;64
92;119;111;111
104;92;88;100
119;111;119;119
76;88;119;125
111;96;84;80
104;104;116;113
111;96;84;92
102;88;84;80
84;94;96;84
76;76;80;103
87;64;80;103
95;95;100;94
96;100;92;111
111;111;108;96
88;104;111;116
119;114;96;76
72;84;100;111
87;64;68;76
88;84;94;103
111;95;95;95
72;80;92;108
119;111;111;100
84;72;68;79
87;72;80;96
111;95;64;64
72;76;92;107
109;100;92;84
88;92;110;111
111;95;95;93
68;80;88;88
92;108;96;80
80;84;94;84
72;72;84;95
79;64;80;80
92;72;68;64
68;64;64;72
95;95;95;103
101;84;72;80
100;86;68;64
72;68;72;64
68;95;79;79
75;52;64;95
95;94;76;72
84;76;80;93
95;95;84;76
64;68;76;76
93;79;48;64
80;84;92;95
95;77;68;64
64;80;95;95
109;111;111;111
111;72;76;88
104;108;104;108
100;84;68;64
64;72;64;64
95;95;63;64
84;95;79;87
87;64;72;84
80;92;95;79
64;64;64;84
103;95;87;87
95;87;87;64
80;119;93;64
80;96;111;95
64;100;111;85
68;92;110;111
119;104;104;96
80;72;68;72
72;72;64;64
64;72;95;95
95;95;105;111
111;111;111;119
124;119;104;96
80;72;84;111
111;64;76;96
96;80;72;80
102;95;76;87
64;68;84;88
76;68;64;68
76;72;68;48
48;68;95;58
52;68;95;63
64;95;95;92
84;92;94;103
94;80;72;72
72;64;64;68
68;72;72;84
68;52;44;52
87;81;64;64
64;56;68;87
94;71;52;48
64;72;80;84
80;68;76;95
79;48;68;88
84;88;80;76
64;48;64;68
84;84;76;76
80;76;92;86
64;48;64;80
95;48;64;80
92;92;92;95
103;103;95;64
84;92;80;92
101;106;103;111
111;76;64;64
76;76;72;72
76;72;80;92
95;95;111;111
111;64;72;80
88;80;80;92
109;109;101;96
104;111;111;111
76;72;80;88
88;76;68;80
92;84;72;64
68;68;92;95
95;87;64;64
68;72;84;84
64;64;88;95
95;84;64;64
72;80;95;95
71;64;64;72
84;88;95;95
95;68;64;64
84;111;87;79
64;80;97;88
95;92;88;80
80;92;84;72
84;95;95;92
92;111;111;111
111;96;84;72
88;111;111;88
84;92;88;110
111;95;76;64
92;100;100;92
84;64;64;64
64;72;80;76
80;84;92;103
95;79;77;79
64;80;103;101
100;94;80;92
111;64;68;68
64;76;103;87
48;84;109;102
84;72;84;109
87;64;64;64
92;100;100;102
92;88;80;68
84;109;95;111
108;111;100;102
104;96;100;108
102;80;64;80
96;103;111;64
80;72;76;76
76;64;68;64
68;68;78;76
84;95;87;56
68;72;92;95
103;103;100;92
84;80;76;80
94;103;79;95
111;119;109;119
127;127;127;127
111;96;127;127
92;96;116;116
108;96;96;84
88;100;88;88
84;80;92;92
80;72;68;72
68;64;68;84
68;68;72;64
56;48;44;45
40;36;52;68
76;95;79;71
48;64;88;95
95;52;76;109
95;75;75;64
80;80;80;80
76;64;64;64
88;95;80;64
69;57;52;48
64;64;85;95
95;76;56;64
92;95;95;95
103;111;88;84
88;84;84;80
72;64;68;68
80;76;68;76
76;68;64;48
64;56;56;64
64;68;87;79
44;64;93;95
95;95;100;84
84;88;88;76
72;80;84;95
95;95;64;72
94;111;111;108
88;80;72;68
110;103;88;80
84;92;92;80
84;76;76;93
95;87;56;64
68;64;76;95
95;52;76;95
87;64;80;103
95;64;80;100
111;64;64;64
88;111;106;100
92;84;92;80
80;103;95;71
64;80;100;109
111;111;109;79
68;96;119;95
68;108;109;68
84;100;100;92
84;76;80;104
111;95;111;108
96;92;84;72
68;64;68;88
109;95;111;87
64;80;92;92
96;108;108;102
80;80;88;94
111;109;111;111
119;110;96;84
108;111;95;85
76;72;96;100
111;111;64;88
109;119;119;119
125;95;95;84
80;100;127;111
76;88;104;96
100;104;116;111
91;68;96;104
111;117;110;108
96;80;72;80
100;100;102;111
111;111;100;92
84;68;64;80
111;64;64;84
92;84;68;92
95;56;72;76
68;64;52;68
95;71;48;72
80;95;95;79
52;72;88;95
95;101;102;92
80;64;64;92
95;64;76;84
101;109;79;64
68;68;72;92
111;64;64;76
92;88;92;95
84;76;76;84
111;60;64;72
95;95;52;68
100;79;52;76
111;64;64;68
80;76;84;88
94;111;95;64
72;84;102;109
111;109;85;68
80;72;80;88
92;95;87;64
68;92;88;84
88;103;95;80
72;80;101;95
64;64;76;94
103;95;76;64
64;64;84;95
95;95;95;95
111;111;88;72
72;76;80;92
104;95;79;64
68;80;88;102
111;68;64;68
84;103;111;95
68;80;102;111
68;76;92;111
95;68;68;94
111;111;111;119
127;127;111;93
80;84;96;112
127;76;100;113
108;118;119;103
119;127;112;127
103;80;96;110
125;127;119;111
80;84;96;112
127;76;76;88
104;104;100;88
84;84;105;102
88;80;64;56
64;64;64;80
84;76;64;48
48;48;64;93
79;48;68;84
95;54;48;64
80;87;84;76
64;56;64;76
80;56;56;68
80;87;78;68
78;76;68;76
72;72;72;93
95;95;88;88
92;101;100;92
68;64;52;52
64;72;95;61
64;76;88;95
103;95;95;100
84;84;80;88
100;101;92;95
92;111;95;87
64;64;92;111
111;95;72;64
80;72;80;111
103;95;95;103
87;68;96;100
119;111;119;100
84;80;84;109
111;64;80;119
87;64;76;104
111;111;95;111
95;72;80;80
80;104;111;64
80;80;92;92
80;68;72;84
111;52;80;94
94;111;111;111
119;68;80;80
80;100;102;88
92;100;102;111
111;111;116;123
127;107;84;84
117;119;72;88
118;111;85;68
88;119;111;76
72;80;111;109
105;111;108;100
104;125;95;68
88;96;111;117
119;87;72;72
88;92;104;111
111;95;76;72
104;103;111;95
72;80;100;100
96;100;100;111
111;70;72;80
88;101;92;72
80;92;111;95
64;84;92;80
88;95;95;79
87;64;64;72
80;84;84;84
80;80;88;84
95;109;95;64
88;111;111;111
119;111;111;103
95;84;80;100
123;124;108;104
96;92;84;72
84;80;84;94
111;95;95;79
72;84;105;111
77;68;84;106
119;79;64;80
111;111;111;119
109;92;72;84
116;95;68;72
84;92;92;80
76;88;95;79
64;80;103;111
95;73;64;64
100;60;68;72
88;102;95;87
79;64;80;111
95;64;88;103
100;96;80;68
88;95;109;111
109;68;68;88
119;79;64;80
111;64;80;80
72;84;103;111
95;64;84;104
111;111;111;119
117;108;88;72
72;76;80;92
111;65;64;76
108;111;87;64
64;64;80;88
111;64;64;72
88;109;95;95
95;87;64;80
111;111;111;88
80;80;68;80
88;108;111;104
102;109;117;109
108;119;119;125
125;118;104;88
100;123;119;118
100;80;72;68
104;64;96;111
95;64;80;84
80;80;76;88
88;76;64;52
64;80;89;92
76;84;76;80
84;88;95;95
101;103;103;100
108;76;64;80
88;92;92;100
92;102;111;111
100;92;84;88
84;84;76;68
64;88;95;95
95;103;80;76
84;88;68;64
84;71;52;72
84;95;87;48
76;103;95;95
109;95;111;111
100;96;102;96
84;68;78;64
80;92;111;95
64;72;88;100
111;79;64;84
104;111;103;88
88;92;92;92
84;88;107;111
69;64;72;88
111;65;64;84
111;72;108;97
84;80;72;76
84;103;109;108
104;111;108;100
88;92;88;96
111;95;70;64
111;64;76;111
71;64;80;84
80;84;72;68
84;95;95;71
64;64;80;72
64;48;64;64
68;89;80;68
64;76;76;95
95;95;71;52
80;92;95;92
92;94;88;92
94;100;84;76
80;94;92;94
92;111;87;64
64;68;88;92
88;88;72;64
68;68;64;48
64;68;64;48
64;72;87;93
79;48;48;64
84;79;52;48
64;95;95;95
111;64;64;88
100;95;79;71
64;70;64;72
80;95;94;107
95;68;64;72
84;92;88;88
92;109;73;64
84;100;108;111
111;64;84;111
119;87;76;64
92;111;64;88
111;111;111;117
96;84;72;80
92;108;111;95
111;95;82;68
80;92;96;110
117;95;83;64
80;108;111;111
119;93;72;96
125;111;125;127
111;84;88;100
124;118;96;88
96;125;87;72
72;88;96;104
108;95;72;64
96;111;111;93
64;72;84;76
64;68;80;94
103;95;71;64
80;92;111;87
77;64;64;64
64;76;111;79
64;64;64;68
72;76;76;80
76;92;93;95
95;103;111;108
100;108;106;84
80;88;111;111
79;68;80;104
111;111;119;111
127;116;96;80
80;92;104;100
104;119;119;119
116;121;124;112
116;127;112;96
84;88;96;119
119;108;104;116
119;119;68;96
118;95;72;92
119;111;84;68
96;111;95;72
80;110;119;119
104;96;96;92
88;80;92;111
79;64;84;102
103;92;100;111
111;85;68;76
108;105;88;68
68;64;88;111
75;64;64;64
88;79;52;80
95;95;84;68
64;64;64;68
92;95;95;95
92;111;79;64
102;111;95;95
68;64;80;100
111;111;111;95
72;80;88;106
111;100;84;80
84;88;88;102
111;111;102;88
88;96;111;111
95;68;68;80
92;111;111;104
100;117;119;111
119;125;119;127
127;111;95;80
84;84;108;125
111;76;72;84
119;119;109;103
103;85;72;84
122;72;80;111
119;95;92;68
80;88;88;80
84;88;107;111
95;64;80;100
111;111;119;119
124;111;92;80
104;125;111;72
88;108;116;100
119;119;100;80
76;80;92;111
95;87;111;100
80;80;64;64
80;88;88;80
72;76;88;92
84;64;52;48
68;92;94;95
79;52;68;93
103;103;109;111
111;111;111;111
95;95;111;103
85;80;96;116
127;119;95;76
96;127;127;119
125;127;116;108
104;112;127;127
103;80;108;116
124;118;96;80
89;111;119;104
92;100;108;119
119;127;95;80
108;95;76;68
88;119;111;95
76;76;79;68
72;104;95;64
92;111;79;72
64;84;94;84
72;88;92;84
95;95;71;64
72;76;88;88
103;103;109;102
88;100;100;84
84;76;68;64
68;88;95;95
95;109;95;95
79;68;72;92
111;111;111;95
76;72;68;64
88;95;68;64
92;79;64;88
104;111;95;68
64;92;111;111
93;95;82;68
80;100;100;94
88;104;111;111
111;118;116;111
108;118;125;108
96;104;127;127
109;111;108;80
104;127;95;80
96;95;84;92
100;118;125;125
127;127;108;100
100;100;123;119
119;76;96;112
124;125;116;116
112;95;80;96
108;123;119;127
112;116;127;127
119;111;111;80
104;127;127;92
84;80;88;92
104;119;119;127
127;127;108;92
96;127;127;127
119;127;120;96
88;80;76;72
96;119;119;119
125;111;103;80
88;104;123;108
88;104;108;114
125;125;116;104
100;119;127;127
103;92;84;72
96;92;72;68
104;111;111;119
125;124;127;127
112;96;80;80
100;111;72;72
80;108;111;119
119;93;72;96
111;119;127;85
88;124;126;125
116;96;84;72
72;72;76;80
96;111;95;74
72;96;111;111
119;111;104;96
108;111;87;72
72;68;76;96
111;111;111;95
81;80;92;100
110;85;68;88
108;103;87;64
84;111;87;64
84;111;95;87
68;92;110;108
96;100;88;84
88;111;111;109
111;111;119;119
119;127;127;127
127;100;111;111
94;88;80;88
116;127;95;76
96;127;87;72
84;116;111;78
80;127;95;77
72;88;96;96
96;111;111;74
80;111;111;103
111;119;100;84
76;72;64;72
100;107;96;80
68;72;92;109
95;95;95;108
96;111;108;80
80;104;110;108
88;84;111;111
111;119;119;118
116;104;88;84
88;95;64;80
96;111;111;105
88;84;92;109
111;93;78;64
100;91;64;80
108;111;111;72
80;109;64;72
84;102;96;88
92;79;64;64
76;94;103;107
96;111;111;119
119;111;125;127
120;127;127;112
100;104;110;113
108;116;104;119
127;119;127;127
111;101;80;100
112;122;96;88
104;95;68;84
108;95;68;68
96;95;64;72
84;92;92;108
111;95;77;64
80;111;111;111
68;72;84;92
110;111;111;111
116;119;84;72
96;119;119;119
124;116;108;108
108;96;80;72
88;119;79;68
72;100;111;111
96;111;111;88
80;88;92;100
108;108;111;119
119;119;108;108
116;87;72;96
100;111;104;88
80;119;76;64
84;111;111;111
125;119;119;112
96;88;80;72
92;119;95;68
68;88;108;119
95;111;104;92
80;92;108;111
110;92;88;88
92;92;88;80
72;98;109;100
80;72;84;94
92;94;111;79
64;84;111;79
64;92;111;95
79;72;88;104
111;95;95;95
95;68;96;119
111;119;111;119
95;88;124;127
119;127;127;127
127;127;119;96
100;124;127;127
127;111;88;96
126;127;119;102
88;112;127;127
127;126;124;141
127;127;127;127
127;135;127;127
111;80;112;127
116;127;127;127
127;120;127;116
112;117;100;96
80;84;88;88
104;95;64;80
80;100;103;84
84;111;95;95
91;95;95;95
95;119;100;88
72;84;100;111
109;87;72;68
96;100;88;80
80;109;111;111
92;80;68;64
80;111;103;88
80;88;84;106
102;84;68;72
80;111;56;64
72;111;79;52
84;102;92;92
96;111;111;104
117;111;109;88
72;100;111;108
110;104;84;80
96;95;79;87
111;111;95;76
72;88;104;100
104;119;111;125
111;93;72;84
127;76;68;92
104;103;95;103
111;95;109;109
95;127;127;116
100;100;92;108
119;111;80;80
100;111;78;72
80;127;78;72
100;111;79;64
80;103;92;80
76;64;56;64
84;79;52;52
80;80;95;95
87;71;56;64
76;92;95;95
84;76;64;70
71;73;79;66
64;80;100;100
103;103;108;111
87;87;79;64
80;72;64;64
52;72;92;95
94;68;56;52
48;52;52;64
92;95;92;84
80;95;88;92
92;84;95;100
95;103;100;92
84;88;104;100
108;111;95;95
79;76;84;108
111;104;92;88
100;111;111;108
88;125;87;80
114;119;103;85
68;72;80;84
88;92;88;111
95;111;95;68
72;88;92;84
80;92;92;84
72;76;95;92
72;80;102;92
72;76;95;79
64;64;56;56
72;86;84;76
68;95;88;80
72;72;72;68
72;76;76;80
88;76;52;48
44;84;92;80
56;63;91;95
68;68;76;92
95;95;103;92
68;68;84;92
92;72;64;48
64;84;92;95
86;68;64;72
76;95;95;95
92;100;109;111
104;88;76;80
88;80;95;103
109;102;76;68
64;72;84;84
72;80;95;103
95;79;64;72
101;92;72;72
95;111;95;95
64;68;94;100
103;111;111;119
119;116;112;104
111;96;80;80
96;111;95;87
68;80;104;111
64;80;92;100
111;87;64;72
92;111;76;64
72;84;94;111
64;64;96;111
111;111;108;96
88;100;88;84
92;88;80;76
84;95;87;87
64;80;100;92
76;92;95;80
72;64;64;72
86;95;95;95
95;95;87;79
64;80;92;92
94;94;103;94
80;111;95;95
95;95;68;76
116;111;100;111
125;85;72;72
110;111;87;68
72;80;80;92
88;109;111;111
111;109;100;116
111;96;84;100
111;64;80;92
100;111;111;119
95;92;76;76
104;95;72;92
119;64;96;109
102;100;88;76
80;80;84;88
95;92;88;80
68;84;95;94
76;88;95;103
92;94;92;100
103;108;111;79
64;72;88;92
108;95;79;75
64;72;84;94
94;103;111;111
111;119;119;127
127;125;108;100
100;100;100;96
88;104;104;100
108;108;104;108
92;117;111;95
72;92;104;111
87;79;64;84
104;111;111;85
72;72;92;119
103;68;68;80
111;111;87;87
84;72;96;111
96;92;92;100
111;111;119;119
104;112;108;104
96;119;111;95
95;111;119;95
80;88;96;100
108;104;110;125
103;92;77;72
104;111;64;96
108;111;119;119
125;100;80;72
72;88;111;104
92;117;111;76
72;76;88;76
72;88;88;80
76;76;84;88
103;95;84;64
64;72;88;95
75;79;52;64
72;95;95;103
95;111;111;119
111;72;88;80
96;102;92;96
84;68;64;72
68;76;88;95
95;95;101;107
105;80;64;69
68;64;72;92
100;80;64;64
84;95;79;68
64;111;87;87
95;95;95;111
117;100;96;96
96;108;92;76
68;92;111;111
117;111;119;127
95;111;127;127
127;127;119;92
96;127;127;127
124;127;127;127
124;112;112;120
116;104;108;88
80;119;119;76
80;80;88;111
111;111;92;80
76;84;104;111
108;84;72;84
108;109;95;111
117;104;100;104
111;100;84;68
64;102;111;77
68;69;68;64
92;111;95;93
64;80;101;111
111;111;110;108
112;96;72;68
80;95;64;64
64;64;80;80
88;72;64;68
88;95;95;95
66;64;80;111
56;80;100;111
87;64;84;84
92;84;92;92
95;100;95;84
72;92;111;95
95;84;68;76
64;68;76;92
95;100;111;68
64;76;100;100
92;88;88;92
100;92;84;80
76;93;111;56
68;88;80;72
72;76;68;80
94;95;95;87
70;64;64;64
84;95;103;109
95;71;64;80
88;80;64;64
48;52;64;76
86;72;64;48
56;76;95;95
77;52;76;92
93;52;68;88
103;60;64;84
87;95;109;108
110;100;84;80
100;111;111;108
88;68;64;68
84;111;111;111
102;84;88;111
76;64;80;80
88;111;111;111
119;100;113;125
126;119;76;88
126;119;127;127
127;127;127;127
127;120;100;88
96;96;80;84
100;119;119;125
127;127;127;124
127;127;111;103
101;88;80;88
118;108;116;119
104;88;84;96
119;117;116;110
112;111;72;80
96;108;116;119
119;127;127;127
127;108;88;80
88;88;100;104
110;96;88;96
111;64;80;104
111;95;68;64
72;80;88;93
96;92;88;88
88;68;64;64
84;68;52;53
48;44;48;56
95;95;95;95
84;64;64;68
92;95;68;48
80;95;79;60
64;80;84;80
92;87;52;52
64;95;79;48
72;103;95;103
108;84;64;64
84;92;103;109
110;84;72;64
68;76;101;107
93;95;111;111
119;111;72;84
111;108;117;119
125;85;72;80
96;88;72;80
84;92;92;84
94;80;64;64
80;103;95;95
87;64;72;80
72;92;109;111
95;109;111;96
88;84;80;80
92;88;84;107
95;64;84;111
79;64;92;110
111;95;70;64
88;111;111;111
111;87;64;84
123;119;111;125
117;104;100;104
127;110;96;92
96;92;100;102
88;80;76;84
100;111;111;78
64;84;88;109
92;84;100;109
111;64;84;108
111;111;108;117
119;118;118;127
127;108;96;96
110;116;125;127
124;127;127;127
127;124;104;88
84;80;84;88
108;118;111;72
80;72;80;84
104;111;111;111
111;72;84;100
111;88;72;64
64;76;84;80
72;88;102;95
64;72;95;103
111;111;111;95
103;111;111;111
111;103;103;84
80;96;104;123
124;100;88;88
108;117;119;119
104;84;80;92
119;72;104;95
72;111;111;111
92;72;68;68
80;111;111;108
108;111;76;68
80;117;111;95
93;68;88;119
109;77;72;114
111;119;127;125
127;124;108;96
100;116;119;95
84;108;109;80
116;111;87;95
92;109;126;112
100;104;96;112
127;127;118;100
108;108;100;92
100;108;127;95
72;80;92;108
96;92;92;92
100;111;95;95
95;79;68;80
108;111;68;72
108;88;80;72
80;80;84;80
92;103;103;103
94;80;64;64
64;76;76;64
64;56;44;56
92;86;87;84
76;95;87;54
64;92;95;87
73;64;72;101
111;109;92;80
92;84;72;64
64;86;95;93
76;68;64;56
64;88;80;76
64;48;48;68
95;87;87;75
71;87;95;111
95;68;64;68
88;92;84;72
64;109;95;95
107;100;111;111
95;68;80;96
111;87;64;64
80;103;100;88
76;80;72;68
92;108;95;64
72;80;94;88
64;56;64;64
64;95;87;79
77;56;64;72
84;87;48;64
88;84;84;80
84;88;80;80
80;64;52;48
64;64;72;88
89;76;64;64
68;86;93;92
80;72;76;76
80;92;92;84
80;68;72;86
88;95;57;48
68;76;80;76
88;95;88;85
80;68;64;72
72;72;64;64
64;72;76;76
95;63;52;52
68;72;76;72
84;87;53;48
72;84;80;76
68;52;48;68
87;64;56;72
76;93;92;88
95;95;107;100
88;80;80;84
80;92;95;100
105;102;88;92
102;80;64;64
64;76;102;103
95;64;64;76
84;84;94;111
109;102;100;111
95;72;80;84
111;111;95;76
84;96;100;102
111;108;92;80
88;100;111;95
64;84;102;100
92;84;80;72
64;72;76;92
95;95;111;95
64;72;84;100
111;64;64;80
103;80;64;68
95;109;95;111
104;76;72;84
100;93;64;84
111;111;111;111
93;72;100;95
64;109;111;95
68;68;84;100
111;87;64;72
84;84;68;64
84;92;95;95
95;107;100;84
92;80;88;111
103;64;64;84
95;72;64;56
64;76;95;95
95;103;105;105
111;95;69;64
64;72;96;111
95;64;80;111
95;64;80;92
100;111;108;104
100;88;84;80
92;111;111;111
109;95;91;76
80;88;88;88
111;68;64;64
84;100;88;94
92;80;92;84
76;84;88;92
95;95;77;56
72;84;95;102
92;68;68;76
56;64;88;103
79;64;72;80
84;103;95;64
68;88;95;108
102;80;68;64
72;68;76;80
84;95;95;103
111;111;93;68
72;80;80;80
92;80;84;84
92;92;80;64
64;76;84;95
95;95;76;64
84;88;92;101
107;111;111;111
104;76;95;109
84;72;79;93
79;72;92;111
111;104;84;80
80;92;111;111
119;87;68;88
92;80;76;76
88;88;100;111
111;95;87;85
95;103;119;113
111;108;84;72
76;84;105;111
95;64;80;105
100;104;108;111
111;68;72;104
119;77;64;64
88;92;95;103
111;111;111;101
88;84;84;92
111;64;72;102
111;103;111;111
109;92;80;88
100;111;111;111
117;108;108;96
100;80;80;88
111;111;119;111
95;72;80;100
111;119;119;121
127;127;127;127
127;127;100;95
119;127;116;96
84;96;116;108
88;72;72;68
88;111;71;64
108;84;64;68
80;92;92;95
111;64;64;88
92;88;94;109
104;104;110;111
100;92;88;92
117;111;111;111
100;116;108;116
116;92;80;109
119;125;124;127
127;112;88;111
127;125;127;127
127;96;116;127
109;80;104;126
127;94;84;80
92;100;113;110
108;84;72;72
68;72;76;84
108;95;79;79
64;64;64;76
111;95;76;70
64;64;64;84
100;84;76;64
64;64;64;80
95;95;95;103
84;76;72;72
80;84;95;71
64;68;52;64
88;80;64;52
68;95;95;95
95;95;95;95
110;80;80;88
111;111;95;76
80;96;111;103
111;78;72;80
92;111;64;72
96;103;92;108
111;111;119;111
119;95;80;84
116;118;108;110
100;80;72;80
100;119;111;76
92;100;119;108
96;104;108;119
123;125;116;112
104;108;112;125
127;84;72;84
118;111;95;78
80;104;127;125
118;104;88;88
104;117;119;111
84;80;88;96
92;72;64;72
80;80;84;80
76;68;68;92
95;95;71;64
72;84;109;111
109;96;72;72
100;111;109;111
111;111;95;76
72;104;119;125
125;127;127;127
127;127;127;124
127;119;93;88
108;96;104;108
120;125;127;95
103;88;84;72
100;109;68;72
104;108;92;76
68;64;80;95
111;79;64;64
72;92;95;77
87;75;64;80
100;111;110;111
119;125;127;125
112;88;111;100
95;123;112;100
100;96;88;92
116;117;108;96
88;119;111;103
87;92;121;127
127;127;127;127
127;127;101;84
100;116;100;80
72;80;111;119
111;87;79;72
84;80;76;80
100;111;111;111
93;96;127;84
80;116;125;121
125;112;104;88
84;92;116;111
87;92;119;123
116;88;76;76
68;80;76;72
88;109;111;111
111;108;88;72
72;84;109;111
111;79;68;84
110;95;109;111
95;90;86;68
84;102;108;96
102;88;88;111
111;95;77;64
100;100;111;104
88;76;80;92
100;84;80;96
109;109;111;93
64;96;111;71
72;95;88;87
92;95;84;88
86;92;88;84
84;88;88;80
84;92;86;72
95;68;95;68
95;80;64;64
95;95;84;100
105;70;64;64
72;80;84;80
92;109;109;92
68;103;76;64
77;56;72;80
84;76;72;68
68;64;68;64
76;76;64;80
92;92;95;84
80;72;64;52
64;84;95;79
63;64;80;103
95;84;68;64
95;95;95;103
111;95;111;96
88;80;76;80
94;84;80;88
95;103;95;64
64;76;88;84
64;56;48;64
95;87;52;68
103;69;52;64
72;84;95;54
52;72;95;95
95;95;107;94
76;64;64;64
72;72;72;80
95;95;87;56
72;95;52;72
95;95;76;56
64;64;72;84
93;95;95;88
72;68;68;84
95;48;76;95
87;69;56;52
64;72;76;88
95;76;64;52
76;80;84;93
95;95;103;107
102;94;92;96
92;88;84;80
92;92;92;88
80;80;84;92
76;56;60;56
52;68;95;95
77;64;80;80
72;95;87;52
72;64;68;72
68;68;76;85
86;76;72;64
52;72;72;92
95;44;64;72
80;95;95;95
103;84;64;64
64;80;84;80
80;76;68;72
95;63;52;64
84;76;64;56
52;64;84;85
95;79;79;69
56;52;64;68
84;72;68;76
92;92;95;92
92;92;103;95
92;111;109;87
64;84;111;91
64;72;88;101
111;64;96;111
73;76;92;100
96;111;111;70
80;96;104;109
117;111;100;92
84;72;64;64
80;88;95;79
64;64;111;79
64;80;109;95
95;64;76;100
119;68;64;68
100;56;72;76
84;84;95;103
109;95;87;70
64;80;80;102
103;111;95;79
68;80;108;111
109;95;111;119
116;100;96;96
88;84;104;111
72;84;119;79
68;84;111;111
119;111;111;111
127;125;104;96
88;80;88;111
119;119;119;76
80;88;92;92
92;102;119;119
111;80;100;127
95;80;72;68
80;80;84;94
88;80;84;106
111;93;111;88
78;95;111;119
103;72;88;96
108;100;96;109
119;95;64;80
100;78;72;96
104;92;88;80
84;111;111;111
116;108;96;104
104;111;111;119
127;127;108;100
116;127;111;127
127;127;92;84
104;127;103;80
96;96;104;108
125;123;104;104
104;96;88;80
88;108;104;92
108;111;111;100
96;96;117;111
95;84;125;119
127;95;76;72
96;96;101;119
111;95;103;111
119;103;95;95
84;80;80;93
95;80;88;110
118;108;96;96
96;96;88;72
72;80;80;84
92;111;95;109
105;104;110;104
100;100;100;100
108;100;92;92
88;76;72;72
72;84;95;84
64;69;87;95
69;64;76;94
106;107;104;92
80;68;72;80
88;80;64;64
68;76;95;79
64;80;86;80
64;68;80;95
95;79;65;60
64;72;80;84
84;95;95;95
109;95;95;105
92;80;88;84
104;106;100;84
84;76;72;84
88;80;72;94
111;64;96;111
95;95;95;87
95;68;84;104
111;91;76;64
96;109;111;103
95;79;64;80
84;76;68;64
80;95;100;100
103;111;111;111
119;111;95;78
80;80;88;104
111;104;100;92
96;80;64;64
68;84;80;84
72;64;64;80
80;88;80;64
64;72;72;68
76;86;68;64
64;68;68;72
64;80;95;87
63;64;88;95
95;95;71;64
64;64;64;80
95;87;71;56
64;52;56;48
64;86;95;79
69;52;52;64
84;95;71;52
64;64;64;80
64;76;89;80
92;95;48;52
52;72;80;72
80;95;93;95
95;111;110;104
110;111;95;93
84;68;68;80
104;111;111;108
110;73;68;76
100;111;111;88
80;96;96;88
84;76;84;88
88;88;111;95
79;64;72;84
92;95;80;84
111;60;64;80
94;84;72;64
76;95;95;95
80;88;94;101
111;77;64;72
84;84;76;76
88;95;103;102
92;84;88;107
111;70;64;72
80;94;80;72
64;56;93;84
72;94;95;56
64;68;84;92
84;92;88;95
88;88;80;84
84;95;61;64
52;68;80;95
94;109;109;109
92;80;80;92
88;101;111;109
102;102;96;96
111;64;96;111
111;64;80;100
92;88;92;100
108;111;95;109
119;100;88;80
80;76;88;80
84;92;109;111
119;79;79;64
80;109;111;92
84;72;84;108
111;100;96;102
108;106;92;96
100;92;92;110
111;119;119;127
124;108;100;100
110;127;111;85
96;127;95;72
88;96;111;119
95;95;111;127
127;127;127;127
127;119;88;84
104;120;127;111
93;84;84;100
117;127;93;76
100;127;125;104
96;80;111;88
103;96;89;111
92;72;68;88
110;111;111;108
108;111;76;80
100;117;111;95
76;84;102;119
119;119;108;92
92;108;110;116
123;119;127;124
124;127;127;127
108;96;100;116
104;100;96;119
119;119;127;116
112;108;110;104
100;96;100;100
119;87;68;80
100;119;111;119
117;119;108;92
84;96;109;118
119;119;127;111
88;80;96;116
127;72;100;127
119;119;127;116
108;108;127;111
80;80;80;68
72;72;84;100
100;101;109;111
119;76;72;96
108;102;96;84
80;76;76;88
80;64;64;64
94;95;95;95
100;103;108;103
92;106;108;105
108;100;80;78
95;76;70;68
72;70;64;64
72;84;84;84
94;95;88;88
88;111;111;79
64;84;108;95
72;64;64;64
84;103;100;100
108;79;64;92
111;111;94;84
80;68;72;80
76;88;95;103
100;100;107;92
101;95;79;64
100;95;95;87
64;84;108;95
79;68;68;84
84;80;84;92
101;79;64;68
92;107;95;65
72;76;88;92
80;72;76;95
107;95;102;109
111;95;64;80
111;64;72;76
80;111;109;111
117;119;127;111
72;96;108;104
127;87;72;84
104;104;104;111
119;111;119;113
104;125;110;88
84;72;68;80
92;80;80;92
106;76;64;64
92;102;95;77
68;64;68;88
111;68;64;76
111;95;111;111
110;117;110;88
80;72;72;84
100;111;111;109
96;88;84;88
92;100;84;64
71;77;52;68
100;95;95;68
64;64;68;80
88;80;80;72
88;95;95;103
96;72;64;64
72;76;76;76
84;95;95;95
95;64;72;80
80;108;107;95
71;64;64;68
92;100;109;103
88;96;108;111
95;95;111;92
72;64;72;80
111;93;87;64
72;72;72;80
109;93;56;68
92;111;77;64
84;111;95;79
64;76;102;95
64;64;84;111
85;64;80;102
111;111;88;68
68;68;76;80
88;95;76;64
72;80;95;92
80;94;109;95
87;79;64;76
88;108;108;100
80;68;72;92
84;68;68;76
84;95;79;61
64;64;68;76
101;95;71;64
102;87;79;64
105;95;95;95
70;64;72;80
100;64;92;95
64;72;100;109
111;64;88;94
104;92;68;64
72;68;80;103
95;52;64;80
95;79;56;52
68;103;95;95
64;68;109;95
95;76;95;111
108;111;119;125
116;88;85;111
111;127;127;127
127;127;134;127
103;80;100;117
127;127;107;84
96;108;112;108
96;122;119;125
124;127;127;127
125;127;124;100
96;118;127;122
116;127;127;127
127;88;112;127
127;127;127;100
88;111;111;95
88;118;124;127
127;127;104;96
96;126;127;124
124;103;80;96
112;111;125;118
104;108;108;100
96;104;116;119
119;111;72;96
112;104;96;104
119;93;72;110
119;111;96;88
84;92;111;111
111;116;96;72
76;68;64;88
108;80;79;84
64;64;52;64
72;92;95;79
64;64;64;64
64;64;64;68
84;95;87;52
64;95;94;101
109;111;95;79
64;80;84;100
108;68;64;80
100;102;111;95
95;95;108;80
107;96;84;80
100;79;64;76
108;95;64;80
84;80;80;94
111;111;111;111
72;68;80;88
96;92;80;88
111;64;80;92
92;80;88;111
110;95;111;111
119;103;72;96
124;111;119;116
127;119;125;127
127;127;127;127
124;124;124;120
127;111;86;88
124;95;96;122
127;103;80;100
108;108;96;84
92;111;111;111
84;76;80;96
100;111;96;104
100;100;84;72
76;84;72;72
95;109;111;111
111;111;95;72
88;119;103;93
79;76;72;64
80;80;88;80
88;95;68;64
72;92;103;111
95;79;64;76
96;102;88;84
92;111;111;95
64;80;104;111
119;95;95;111
125;125;116;116
124;111;76;80
88;111;108;108
96;108;119;127
109;72;96;116
125;111;95;72
88;100;119;119
125;122;112;100
92;96;116;104
96;117;119;119
127;127;125;108
96;96;96;112
125;111;111;127
126;127;127;120
112;108;116;127
127;127;127;111
109;84;100;126
127;127;127;127
127;127;124;104
108;127;127;127
127;127;127;112
96;88;88;108
112;108;104;96
100;119;111;72
92;111;111;72
96;116;119;111
111;84;72;80
108;95;64;68
88;119;95;95
68;72;100;95
72;96;102;111
111;111;111;119
108;100;80;72
76;96;111;95
68;80;105;111
111;111;119;125
127;124;116;108
118;127;127;124
120;104;100;96
88;96;108;124
119;96;80;88
108;93;68;84
119;119;119;121
124;119;80;80
108;111;72;84
100;74;72;84
92;92;72;72
111;71;64;72
84;80;80;101
95;77;64;76
96;101;95;88
109;64;68;92
107;92;76;72
84;109;87;79
64;72;84;84
84;95;71;64
68;88;80;68
72;95;71;64
72;95;95;87
64;64;64;72
80;76;68;68
93;48;64;76
80;68;64;72
76;95;95;95
88;68;64;52
52;64;48;64
64;95;87;79
52;64;76;84
84;95;95;95
95;103;93;95
111;77;80;80
84;111;95;64
88;84;104;96
111;76;64;72
80;84;68;72
109;64;88;95
95;69;64;76
109;87;71;64
80;111;111;111
111;84;68;88
119;95;72;64
92;111;102;100
104;111;111;116
122;111;95;95
95;72;100;114
110;111;111;95
72;108;127;125
118;124;108;88
88;116;104;96
96;111;119;119
108;88;72;64
80;106;111;95
64;92;100;92
84;111;111;111
104;100;108;100
84;76;68;72
80;76;68;76
88;79;48;64
80;93;95;94
103;103;108;110
109;111;72;84
100;95;64;76
119;64;80;111
109;111;104;92
88;100;92;96
111;87;64;84
103;111;95;95
76;68;72;88
100;88;84;80
72;84;93;95
111;64;76;101
111;71;64;72
80;111;95;79
72;96;111;93
68;64;72;102
87;64;68;88
106;95;79;64
64;80;111;95
64;80;94;111
111;64;72;88
108;111;100;88
72;92;111;111
111;119;117;118
122;127;127;127
127;127;116;116
120;127;84;84
96;80;111;118
100;108;108;119
127;127;127;95
80;80;104;113
108;127;127;118
108;127;127;127
116;96;88;96
96;111;68;80
104;111;111;111
76;72;84;100
108;111;96;80
96;105;100;96
105;108;92;92
100;111;95;68
88;92;92;100
92;111;111;119
119;91;68;84
100;111;111;111
111;80;76;72
92;86;72;64
84;102;95;78
64;64;80;103
111;95;64;72
88;111;105;100
96;109;108;100
84;84;68;64
64;76;95;77
52;68;95;95
95;88;72;80
76;109;87;68
68;88;108;92
88;111;95;95
76;80;110;111
117;110;88;80
80;100;111;87
64;64;80;111
71;80;100;108
111;95;79;72
80;96;111;111
111;100;76;76
103;84;72;103
109;111;96;100
96;84;88;84
84;79;64;80
109;79;64;88
107;109;92;84
84;80;88;95
92;108;111;111
111;104;108;104
96;92;88;88
92;111;95;73
64;68;80;80
94;111;93;72
64;64;72;72
80;92;88;68
64;88;84;80
84;95;87;77
64;111;76;64
84;103;101;84
76;108;95;64
92;111;111;108
100;119;119;104
84;80;88;80
84;111;111;111
111;96;84;76
80;119;95;111
119;110;96;80
88;111;93;91
72;68;64;64
84;87;64;64
72;80;107;95
95;94;68;64
64;76;109;79
64;88;100;101
92;80;80;72
64;80;95;95
92;111;56;72
100;111;109;95
64;84;80;92
80;111;95;72
64;72;100;92
88;111;96;92
84;96;109;111
111;110;111;119
123;111;95;72
100;84;76;96
100;116;111;79
72;84;108;111
125;79;76;88
92;116;111;111
92;72;80;96
111;111;79;80
118;111;100;104
100;119;111;84
68;84;92;108
96;92;88;84
92;84;72;72
80;84;64;52
64;68;68;76
84;95;95;95
88;88;88;76
80;95;52;64
72;76;88;76
52;60;71;93
76;80;72;68
84;95;95;95
95;68;79;92
72;101;79;56
72;80;76;76
72;76;72;84
95;95;95;88
76;88;111;103
95;111;118;119
119;119;104;96
100;124;127;116
88;96;92;80
84;84;88;88
72;80;80;80
92;92;80;64
76;87;70;74
79;56;64;64
52;68;95;95
95;103;95;87
64;72;72;72
80;88;103;95
77;68;64;56
64;72;80;92
95;95;56;64
64;69;95;103
96;94;92;80
72;84;80;102
95;95;95;111
96;72;76;79
69;64;64;80
88;80;84;95
88;107;87;56
68;103;95;65
64;111;79;64
64;64;92;109
79;56;80;109
111;111;104;80
68;76;80;84
107;95;95;111
100;88;80;72
88;84;72;64
64;95;95;103
94;80;80;95
94;95;79;87
68;64;96;108
109;100;80;84
88;84;84;92
72;92;103;109
108;88;80;80
88;111;111;111
108;119;111;76
84;95;68;84
104;100;84;84
92;111;95;95
91;64;72;104
111;96;76;64
64;64;64;72
95;79;52;68
95;95;71;48
84;79;56;52
72;80;95;95
95;94;84;64
64;64;72;95
95;95;92;92
76;64;68;76
80;79;60;48
76;94;95;102
94;103;95;64
68;76;95;103
108;108;111;119
119;111;79;80
104;125;111;119
125;108;100;96
100;124;127;95
80;96;96;109
114;108;92;111
102;108;100;96
80;92;111;111
100;84;76;72
64;76;92;109
106;105;111;111
111;104;96;96
96;84;80;100
106;111;87;64
84;84;80;80
80;100;103;109
111;111;108;100
96;119;119;119
108;88;72;80
108;111;84;68
80;108;111;111
111;111;108;108
88;76;68;80
96;111;95;72
64;64;84;92
84;80;72;72
84;95;79;60
72;95;71;70
64;64;72;84
94;103;103;108
104;111;91;68
80;119;111;104
100;119;116;121
118;108;112;125
124;127;127;119
111;103;119;111
84;104;127;119
80;116;127;111
119;127;127;127
112;126;127;127
108;104;112;124
127;127;124;116
124;127;127;124
127;127;127;127
127;97;88;96
108;127;111;93
84;84;96;116
119;108;100;108
116;123;127;127
124;108;92;88
96;108;119;119
127;95;76;80
80;88;110;119
64;88;108;119
95;95;84;72
84;100;96;100
88;92;104;111
111;92;72;73
77;71;64;84
100;111;64;64
88;111;111;111
95;119;104;84
80;88;96;111
111;100;80;84
92;102;111;95
64;72;100;95
64;72;96;103
92;111;108;111
111;119;119;111
119;110;92;96
100;111;114;116
108;104;119;124
119;116;100;88
84;110;114;127
111;95;94;95
76;88;112;118
121;111;127;126
120;127;109;88
88;108;127;127
111;119;111;88
96;112;127;111
80;88;84;96
100;104;88;88
84;109;95;109
119;111;95;111
84;80;88;116
108;88;72;93
95;95;76;76
88;88;92;101
92;101;111;87
84;95;111;118
108;92;84;80
88;119;95;68
68;108;108;100
92;102;104;92
84;92;80;76
100;100;84;88
100;111;79;64
76;92;94;92
109;92;72;64
72;101;87;70
64;88;111;64
64;108;111;111
93;72;64;76
88;94;108;111
95;64;84;111
95;68;96;108
100;92;88;92
96;108;108;111
110;111;119;119
110;92;88;100
104;108;84;68
64;64;84;100
103;101;111;111
110;108;100;100
108;125;111;76
84;108;119;119
96;96;104;100
88;111;103;85
72;111;64;84
119;64;80;92
108;111;111;117
113;123;127;111
103;122;96;88
111;112;84;76
104;111;95;68
80;80;84;80
72;111;95;87
73;85;87;79
72;111;87;72
72;84;111;111
111;104;80;76
79;64;72;111
79;95;92;68
64;64;64;72
95;95;72;64
64;72;76;88
92;88;95;95
95;76;64;72
76;109;95;100
84;72;72;88
88;84;84;95
95;87;71;64
64;111;79;64
104;95;95;95
79;64;72;100
109;95;64;80
92;108;100;80
64;64;64;68
76;111;95;64
64;72;84;92
95;100;102;111
111;92;68;95
84;72;80;111
68;64;80;108
109;88;76;84
92;111;95;71
64;80;100;101
97;102;100;88
76;100;103;96
84;76;72;64
88;80;64;64
76;95;95;95
71;64;64;64
84;84;100;103
95;95;71;64
76;80;95;95
84;84;88;103
95;95;111;111
111;111;87;68
96;110;96;88
88;111;95;95
111;111;88;80
80;100;119;111
111;125;127;84
80;112;116;96
100;111;72;92
100;109;108;104
100;115;119;95
64;92;88;84
84;111;111;108
96;96;108;111
110;116;108;118
119;109;76;80
88;127;93;72
72;100;111;111
119;111;109;119
125;100;80;76
80;96;119;111
68;88;111;104
100;92;88;104
110;111;108;104
92;104;110;108
119;119;116;88
80;100;123;127
111;72;76;76
96;111;68;80
104;111;79;76
68;80;92;95
64;72;88;108
109;108;110;111
96;100;104;119
111;108;84;76
64;92;104;108
102;92;108;111
111;111;96;76
76;77;64;76
102;111;111;111
111;119;116;116
125;111;76;88
108;109;87;85
72;127;72;88
108;119;95;84
72;96;108;117
108;116;127;95
76;80;96;96
100;111;119;111
85;72;88;108
116;119;119;111
72;96;96;100
108;111;82;68
88;108;119;91
68;80;100;111
95;111;111;111
92;76;80;96
111;119;117;123
119;124;116;96
100;116;119;127
124;127;127;127
95;88;104;127
111;80;84;104
108;92;88;88
108;72;68;84
92;72;64;76
103;95;87;70
64;80;111;109
111;95;64;80
96;111;111;95
91;72;96;119
111;95;77;72
84;80;72;80
88;80;64;56
64;95;95;95
95;111;111;111
100;104;104;100
80;80;80;110
95;64;88;111
95;68;64;72
96;111;95;72
72;96;111;92
93;68;64;68
76;111;95;111
111;95;95;109
72;96;121;119
95;76;112;119
109;76;88;104
127;68;108;100
100;123;111;111
119;112;92;88
96;108;119;119
127;119;95;76
96;116;127;127
127;103;84;100
127;112;88;72
76;84;100;102
108;104;92;80
76;92;111;71
72;111;111;111
102;84;72;76
92;102;109;105
88;92;111;111
111;92;72;68
64;88;111;111
111;104;80;72
80;88;108;111
111;117;119;119
110;100;88;88
80;88;111;111
103;109;72;80
84;108;119;111
119;92;76;80
96;124;111;82
72;96;111;119
95;92;111;111
109;76;80;88
84;102;119;119
125;84;80;92
92;111;119;72
88;92;80;84
110;108;96;96
92;92;103;96
88;76;84;103
103;95;69;64
76;111;111;111
96;76;76;72
68;80;84;64
64;64;72;92
88;84;76;64
64;76;76;92
88;76;86;95
95;84;64;64
68;92;95;79
48;84;95;79
52;64;80;88
92;95;79;52
72;103;95;93
111;109;111;96
72;104;119;95
68;88;108;111
111;100;96;96
116;111;68;80
104;100;96;100
84;96;111;95
64;96;111;70
80;111;95;95
79;84;104;119
111;81;80;96
100;88;80;80
92;88;68;77
84;64;95;77
64;84;105;111
64;80;96;111
111;64;72;100
111;103;92;88
84;100;111;79
76;110;108;102
96;111;111;119
119;96;80;91
72;72;72;88
111;104;111;111
116;111;87;76
92;100;108;116
119;112;111;116
116;108;92;72
68;68;80;96
103;80;76;80
100;111;109;92
80;80;72;100
111;95;95;93
68;84;111;109
95;95;72;80
104;96;84;80
88;100;96;76
72;72;80;80
80;95;87;56
76;84;92;95
108;79;64;72
100;95;92;88
94;111;103;96
92;88;100;111
111;111;95;87
68;88;102;92
96;111;108;100
104;88;80;84
108;111;111;111
119;95;76;72
108;119;100;76
64;80;111;111
111;87;68;80
102;96;96;96
92;80;80;108
95;79;68;64
76;111;111;111
69;84;119;79
76;84;80;84
109;100;93;100
88;104;111;106
108;92;72;64
68;95;103;100
111;111;95;64
100;100;96;100
100;100;92;96
111;79;64;84
111;111;111;108
108;119;95;76
76;72;88;111
111;79;72;88
100;104;95;93
76;69;64;68
88;80;95;101
110;102;88;88
100;88;88;88
92;95;64;64
72;107;95;70
64;64;80;108
71;68;105;111
110;111;95;103
87;80;108;116
119;127;127;127
127;108;104;108
116;119;103;92
80;116;119;76
88;100;119;85
80;127;111;93
76;72;80;100
111;95;68;64
72;64;68;64
80;92;84;95
102;87;71;64
64;80;103;95
109;111;111;95
64;92;96;111
111;111;95;85
68;92;104;117
123;81;72;92
125;111;76;80
92;92;108;111
95;68;96;104
111;95;64;80
119;95;64;80
104;111;111;111
123;125;112;112
119;112;118;127
92;92;108;116
124;127;127;103
80;100;112;124
127;127;127;127
127;80;96;112
116;127;127;119
88;100;127;127
127;127;127;139
125;108;96;88
80;96;108;117
119;119;104;112
124;111;88;72
68;84;100;111
111;87;72;88
100;92;96;104
111;109;103;87
68;88;111;119
110;119;123;119
119;119;119;84
96;96;96;116
127;95;72;80
88;109;110;100
108;108;92;80
84;96;84;84
80;76;92;109
111;95;95;95
64;100;102;96
96;88;88;84
100;84;80;84
84;92;108;95
95;64;80;100
84;80;64;64
64;80;80;95
95;87;56;68
100;80;72;80
84;95;95;95
56;84;80;72
68;64;56;56
48;64;92;95
95;56;52;52
68;80;88;84
80;95;95;79
52;76;88;94
84;92;100;92
84;64;64;52
72;93;95;103
111;87;68;64
64;64;72;80
84;94;95;48
72;102;95;68
68;101;111;111
95;111;111;111
76;116;122;125
111;111;80;84
104;116;127;111
95;80;72;72
80;96;102;100
96;102;96;104
111;95;68;68
100;79;64;88
104;92;80;84
80;76;64;64
72;72;80;95
95;79;52;84
103;103;103;105
105;111;111;119
114;88;76;80
100;111;119;119
109;68;88;119
111;93;72;72
84;92;100;96
100;111;95;64
76;92;96;104
111;64;88;88
80;76;84;84
72;52;63;63
48;80;95;95
95;94;88;84
100;102;84;64
64;64;84;95
103;84;64;64
80;79;48;68
95;80;64;48
64;64;84;95
95;95;95;92
111;64;84;111
111;64;68;84
100;111;111;111
119;95;72;96
96;95;72;84
108;111;108;104
104;111;79;68
88;80;72;76
102;62;72;106
111;64;84;111
111;111;104;84
84;80;72;72
100;111;95;64
76;96;100;92
94;111;111;111
79;88;108;108
100;116;119;111
119;84;72;88
125;95;72;80
100;84;72;72
92;103;95;84
64;64;72;88
95;79;68;52
72;80;76;72
72;80;84;80
92;95;92;68
64;92;95;95
57;64;95;95
79;64;64;84
103;80;64;64
64;68;88;95
87;60;60;52
72;95;87;52
64;68;72;80
84;95;77;64
84;94;109;103
111;95;77;64
80;96;111;95
95;68;64;80
111;111;100;100
104;100;102;88
72;68;68;72
72;80;103;109
111;111;64;84
111;87;72;100
117;111;92;80
84;100;100;100
92;72;69;95
108;111;111;111
119;111;111;95
85;76;84;100
96;88;80;80
92;87;64;64
84;68;64;72
80;95;95;109
95;56;64;76
80;103;93;76
64;76;80;103
95;102;84;72
72;68;68;72
80;86;95;93
60;72;92;109
111;111;109;119
78;96;119;119
111;84;72;80
88;84;84;92
111;95;70;64
76;80;88;111
111;111;111;76
80;72;76;84
88;95;85;71
64;88;92;95
100;92;108;100
108;96;84;88
108;111;119;95
72;80;108;111
111;111;111;72
88;96;96;111
119;111;95;95
91;76;92;116
119;111;72;88
108;119;118;116
125;119;108;96
96;80;72;64
88;100;92;100
111;111;95;95
68;76;84;110
111;64;84;111
111;95;87;68
100;118;111;108
92;100;110;119
111;68;96;116
116;125;127;125
89;96;108;118
112;100;80;80
92;80;72;84
111;103;95;95
77;72;92;111
85;92;103;119
127;123;112;96
100;127;92;95
78;88;96;119
119;111;81;72
96;84;80;92
108;95;64;84
104;108;92;80
88;95;64;72
96;88;80;72
84;95;64;84
95;64;92;111
69;76;101;111
111;95;95;91
95;90;84;72
80;80;80;84
92;111;69;64
68;72;88;92
76;72;72;92
95;64;84;94
101;92;72;64
56;64;89;103
95;95;95;106
84;79;107;76
72;95;109;119
111;76;64;80
88;111;111;119
95;72;88;100
119;111;93;76
84;116;119;84
80;100;92;84
96;92;98;111
111;119;111;108
127;78;80;100
104;119;111;119
127;111;111;111
119;127;116;92
119;119;127;127
100;96;116;127
127;127;135;127
127;95;80;96
116;124;127;116
104;96;88;88
80;72;76;80
84;84;100;102
111;68;64;80
80;84;80;80
80;84;92;72
64;64;76;88
95;79;52;68
94;95;79;56
64;64;56;61
56;61;79;79
79;56;72;84
95;103;95;92
88;84;100;108
107;104;92;96
92;68;68;56
68;111;60;64
72;72;64;68
76;84;95;95
95;64;84;109
95;85;64;64
84;80;84;92
76;76;80;76
64;48;48;48
64;76;84;95
79;48;76;80
80;95;95;64
64;72;80;92
76;80;84;95
109;95;75;64
84;111;87;64
72;68;80;94
101;95;87;68
64;84;101;108
92;84;94;103
95;64;76;100
103;100;108;105
119;95;79;68
64;72;84;92
100;94;88;84
80;92;95;111
95;72;92;111
111;104;100;102
117;118;114;119
93;80;80;88
127;68;88;108
119;68;80;100
111;72;96;108
100;111;111;111
87;80;96;119
119;111;80;80
100;104;116;116
96;88;100;104
119;111;95;72
80;111;64;80
108;119;111;85
72;80;100;111
119;64;72;72
92;111;64;64
80;100;111;87
68;64;72;72
76;72;72;92
95;93;84;72
64;48;48;64
72;92;95;95
103;111;111;111
111;111;119;125
127;111;88;80
96;100;108;111
108;116;104;111
108;109;127;111
111;84;108;125
127;111;80;100
125;119;111;84
80;112;127;127
124;127;84;88
104;127;122;116
127;80;84;100
116;113;112;110
127;93;72;92
104;119;111;87
72;88;88;88
100;100;111;111
111;103;86;72
96;108;119;119
127;72;72;96
116;116;112;110
118;111;76;72
92;119;111;85
80;96;100;80
76;68;64;72
76;76;84;93
88;84;92;84
88;95;84;80
88;92;84;76
92;95;95;95
85;95;95;111
119;77;80;100
118;95;72;92
119;111;95;103
119;124;100;88
92;80;96;111
111;125;111;95
86;72;84;118
119;119;95;78
72;92;92;100
100;111;104;100
104;111;104;96
96;104;100;116
125;79;72;96
108;119;95;68
84;88;80;72
80;103;103;92
96;111;95;79
64;88;111;95
95;70;68;68
72;92;111;95
87;68;88;111
111;108;111;103
68;84;108;117
119;84;72;110
125;68;84;92
102;111;111;103
89;72;100;119
119;117;104;96
127;68;92;108
119;119;125;125
127;111;80;96
116;127;127;127
127;95;80;96
100;121;119;109
86;76;96;116
127;127;124;104
88;80;100;125
111;72;88;100
111;111;76;80
114;119;116;111
116;111;72;92
117;119;125;126
127;127;124;127
127;119;100;96
143;76;84;104
111;86;76;72
84;76;84;94
111;111;108;104
108;125;111;109
72;96;127;119
127;103;80;80
104;127;95;72
88;96;96;108
111;95;95;111
111;80;96;125
127;116;108;112
127;72;84;108
119;103;84;72
96;96;119;119
111;95;84;76
80;76;72;85
111;88;80;72
76;84;109;95
79;79;79;64
68;76;92;92
84;102;95;64
72;76;80;80
92;95;95;87
87;64;64;76
95;108;111;111
108;100;104;111
119;119;127;119
89;80;88;118
119;111;95;76
108;127;111;72
96;95;72;72
84;80;88;92
100;84;76;72
68;68;88;95
95;84;80;84
100;87;56;64
76;92;92;88
111;56;64;88
109;95;80;88
94;108;111;111
110;92;88;84
104;111;76;64
80;108;95;79
77;64;76;111
95;111;108;119
111;80;119;95
68;80;96;111
95;79;68;68
80;108;87;64
92;95;64;72
94;111;111;119
119;111;72;96
112;127;119;119
116;127;91;84
127;111;111;127
126;127;127;127
127;140;127;127
127;94;80;88
100;127;103;87
80;88;88;84
96;104;111;111
108;127;95;72
96;125;85;68
108;111;87;68
84;111;109;104
119;87;80;96
116;111;119;111
88;80;72;84
100;96;108;111
119;68;76;100
111;111;111;116
104;88;88;104
108;88;80;88
110;87;87;64
80;88;100;88
76;68;64;64
64;88;95;95
77;68;64;80
84;95;103;71
72;84;80;72
95;103;109;102
92;100;100;111
111;95;95;85
80;96;104;111
111;119;95;72
88;116;127;95
82;84;72;76
96;104;105;100
88;96;111;95
74;64;84;96
111;108;92;80
88;111;64;84
111;70;72;111
95;68;80;100
111;102;100;100
100;111;72;68
80;84;100;111
111;103;95;87
68;104;111;76
80;96;119;95
72;111;111;95
87;72;68;80
108;111;95;95
109;72;68;72
100;95;77;76
108;79;68;100
111;111;111;104
100;100;92;92
96;92;111;95
95;64;84;102
96;100;111;111
95;82;68;96
119;119;111;77
96;119;127;111
111;127;127;127
120;143;127;127
127;127;108;96
108;127;111;127
111;103;107;84
96;96;104;108
116;100;96;100
119;111;95;79
80;127;111;84
84;100;123;111
76;80;96;96
100;117;117;119
111;100;96;92
92;80;80;100
111;108;92;84
119;68;72;104
95;111;103;87
85;87;72;68
72;84;92;105
111;95;64;80
100;111;111;111
108;104;84;80
80;111;111;100
108;91;64;80
92;94;102;108
110;95;64;84
111;64;76;84
103;79;64;80
100;88;76;84
100;95;95;64
76;92;111;95
111;72;64;72
100;111;111;111
84;72;92;119
111;79;68;68
108;87;68;68
96;110;111;87
91;79;87;79
68;76;88;111
95;79;64;72
80;105;111;111
111;68;64;64
84;111;111;111
96;110;119;119
111;76;80;104
119;79;76;121
87;88;119;111
111;127;127;116
112;108;104;100
96;116;123;121
100;96;84;100
124;72;80;109
111;111;108;88
88;127;119;119
127;124;100;96
116;119;80;88
100;104;116;118
122;127;127;127
127;112;104;112
116;127;127;127
111;80;120;127
119;127;127;127
127;127;116;104
104;104;100;96
96;104;116;119
127;111;76;96
123;125;117;88
80;76;76;68
80;100;95;68
72;102;111;111
117;92;72;64
108;64;64;80
96;92;95;109
111;70;64;84
111;52;92;109
111;95;68;64
80;111;95;95
111;119;119;127
127;125;119;88
96;108;116;121
118;96;80;72
80;80;88;109
108;96;84;80
92;111;95;64
92;111;64;72
100;79;70;79
64;72;68;80
103;52;64;76
102;48;76;95
95;95;111;111
95;64;84;88
100;111;109;100
100;84;76;76
80;110;95;87
85;79;64;72
109;79;64;84
94;111;79;64
80;84;80;88
94;95;103;111
111;111;95;74
68;80;88;109
95;79;64;80
106;88;72;64
88;95;109;108
84;84;111;95
79;111;100;88
84;102;106;100
111;111;111;111
111;72;80;84
113;95;95;78
72;84;92;100
108;95;64;68
109;111;111;95
76;100;100;104
117;119;119;111
88;76;84;92
96;111;91;68
84;123;111;95
90;72;72;80
108;74;84;119
93;95;111;119
127;85;72;88
119;127;111;91
88;112;127;111
81;100;127;111
95;93;103;127
121;116;121;100
88;80;80;80
96;119;111;119
119;119;103;76
88;104;112;127
109;95;80;80
100;111;125;111
76;76;76;96
104;119;119;87
72;72;80;108
111;104;84;76
80;100;111;111
119;127;125;127
127;127;84;88
100;125;124;127
127;89;88;118
127;127;124;124
127;127;127;127
127;111;100;88
116;127;127;127
112;108;104;104
108;127;95;80
112;123;125;127
127;127;127;108
96;100;127;80
100;124;125;124
127;120;104;112
127;111;127;127
127;95;88;96
120;109;80;80
88;96;100;116
119;87;68;88
100;84;84;88
104;76;64;72
92;111;64;68
111;64;72;84
84;92;84;80
109;56;72;92
103;92;68;56
52;52;56;64
95;79;48;48
68;95;79;52
76;84;95;95
93;95;96;84
92;110;106;96
102;111;119;93
72;80;84;84
96;95;64;68
84;100;103;92
92;111;111;111
87;72;104;119
111;111;91;76
100;121;95;87
76;111;118;92
76;72;88;96
108;95;64;80
109;111;111;111
111;72;76;104
119;119;125;111
103;119;119;119
88;104;127;111
95;92;80;88
104;111;76;88
119;109;72;72
84;96;119;111
104;119;95;76
72;104;109;108
96;100;111;119
125;111;95;80
108;111;123;96
80;80;96;119
95;95;84;72
96;111;95;68
80;111;119;91
72;100;119;119
125;109;111;127
111;86;88;126
127;95;80;96
120;127;127;127
127;127;127;116
112;108;108;108
116;118;118;125
127;127;111;88
96;120;111;111
103;94;80;88
127;84;80;104
127;111;103;76
88;123;127;125
127;127;127;126
127;127;119;103
88;96;112;116
124;111;80;104
116;116;84;72
80;104;119;111
87;72;80;88
92;111;111;95
64;92;117;119
119;111;72;88
127;111;84;72
96;111;72;80
96;92;119;86
64;80;84;72
80;80;101;107
96;111;108;88
80;84;84;76
72;76;88;76
84;95;61;52
80;79;63;56
88;95;95;68
52;52;48;48
64;64;80;76
80;95;71;52
64;72;64;68
92;87;79;48
72;76;64;76
80;79;57;52
64;95;95;95
102;111;111;111
109;119;110;108
110;119;76;80
108;113;96;80
80;102;111;95
95;111;88;76
68;68;64;80
80;104;95;64
80;92;94;101
111;76;64;84
100;79;64;80
100;80;64;68
92;87;87;95
69;64;72;80
92;109;95;95
68;68;80;102
106;111;102;84
80;80;88;84
95;95;73;64
80;111;93;75
64;72;92;102
103;80;68;80
103;111;111;111
111;111;119;104
104;95;81;72
100;108;111;104
96;111;119;119
125;124;100;84
88;104;119;125
127;125;112;96
96;127;95;92
80;72;76;84
104;111;95;87
68;80;108;119
103;119;127;111
80;96;127;127
125;127;127;119
94;96;104;127
95;127;124;108
104;96;100;112
104;127;127;125
124;108;120;127
111;127;104;88
80;96;112;127
124;120;108;116
127;108;100;112
127;107;76;80
92;109;119;108
111;119;118;104
96;96;96;104
102;119;104;84
76;64;72;88
94;95;64;80
92;111;111;79
64;72;84;94
100;111;95;111
93;68;76;104
119;119;119;123
108;108;118;124
127;111;76;96
124;127;95;86
80;96;122;127
125;127;127;125
84;84;100;116
124;127;103;80
80;96;104;119
124;119;111;80
96;88;84;88
110;93;72;64
88;119;85;64
80;111;111;84
77;72;92;111
111;111;95;95
68;84;84;84
100;111;95;77
68;68;92;111
108;100;96;108
119;68;80;92
111;95;95;95
78;80;100;104
104;111;119;119
91;80;116;114
108;127;78;96
123;124;127;127
127;127;127;127
127;127;127;124
124;139;127;124
100;84;84;100
108;119;127;84
72;72;88;119
111;108;116;116
116;104;108;127
125;127;127;127
112;96;88;92
112;111;72;104
123;117;104;100
108;124;125;127
109;80;96;119
84;93;95;111
121;88;85;95
111;127;120;100
88;92;108;104
104;119;119;93
86;80;76;76
100;109;95;103
111;72;100;119
111;119;111;127
127;108;88;84
96;127;111;127
127;127;109;88
96;127;119;92
80;96;127;103
80;104;127;111
111;84;72;80
108;111;72;72
108;111;72;68
92;111;85;84
72;80;104;111
111;111;104;104
119;108;104;92
96;125;95;79
72;76;100;111
111;110;96;92
108;111;119;111
111;119;110;88
80;68;96;119
95;90;77;80
119;95;68;80
116;87;64;88
96;111;111;68
72;84;92;111
95;68;64;84
94;111;68;64
96;102;88;80
88;109;95;79
64;84;111;79
64;84;111;95
64;68;76;92
100;108;100;92
84;80;76;88
103;95;95;73
64;68;80;111
95;95;64;68
111;87;85;93
95;95;87;64
80;92;100;109
111;108;104;100
104;111;103;64
84;119;91;72
72;88;108;111
111;108;92;76
95;64;80;80
80;108;111;111
111;100;84;72
80;111;95;79
64;84;111;95
68;64;64;64
92;111;111;108
84;88;111;93
64;72;88;80
80;100;107;111
95;64;96;111
95;85;78;64
80;96;108;105
108;111;108;100
100;84;68;72
64;64;64;72
88;103;101;111
109;111;96;92
88;92;111;111
111;96;76;68
76;80;92;111
110;108;111;108
100;92;80;80
84;108;111;95
64;80;80;111
111;111;108;100
84;68;88;102
88;88;92;104
111;76;64;80
100;97;92;92
104;111;111;111
111;92;72;72
80;96;106;111
111;111;111;82
68;119;87;68
80;100;111;87
72;92;102;119
111;116;116;127
95;80;122;127
92;95;85;88
108;108;117;119
119;116;96;88
96;119;119;116
116;127;127;127
127;104;88;80
72;96;108;104
112;111;92;72
80;119;119;118
96;96;96;88
96;111;76;68
100;111;111;79
72;118;119;119
127;119;103;84
96;127;103;80
96;104;108;108
108;110;110;113
100;84;80;100
119;119;111;95
84;72;96;119
111;100;80;79
80;100;119;125
111;127;125;111
92;84;104;127
95;80;80;84
100;104;105;111
119;119;111;108
108;125;111;95
72;88;104;108
110;92;72;72
96;111;95;95
68;80;88;104
111;111;119;123
119;72;96;108
119;118;116;118
119;72;104;127
127;112;96;100
100;88;88;119
95;91;76;72
76;84;84;100
111;108;96;119
111;111;109;111
84;72;88;127
78;80;111;119
116;96;88;96
104;119;95;68
88;118;95;64
80;80;96;100
84;100;88;80
94;106;111;111
100;88;84;96
92;88;80;84
80;111;95;95
95;70;68;88
92;84;80;80
92;100;101;92
80;84;80;95
109;95;77;64
92;111;95;95
72;64;80;100
109;92;80;92
111;95;64;76
100;111;64;76
88;94;100;88
100;95;64;80
111;95;64;84
100;109;111;91
68;109;96;80
72;88;80;72
100;95;95;64
84;111;95;72
64;64;72;92
100;108;110;108
100;88;88;88
80;92;80;64
64;68;94;95
68;70;52;64
84;107;109;95
103;111;119;119
119;127;103;95
76;100;127;111
103;84;76;80
96;118;119;91
72;119;111;84
80;116;108;104
116;127;111;72
96;108;104;96
96;96;88;80
84;111;111;119
111;117;110;119
123;108;96;100
124;95;72;88
104;119;119;100
88;92;100;104
110;116;111;108
119;111;95;72
88;119;111;119
112;108;116;127
95;80;88;96
100;96;88;100
106;92;84;88
80;92;111;111
87;85;95;111
95;76;96;111
68;88;111;118
119;103;93;84
68;88;96;111
118;119;125;122
108;96;80;80
108;117;111;100
100;96;88;100
108;116;119;111
111;100;84;109
103;72;88;112
111;124;123;108
96;117;122;122
122;127;127;122
104;112;122;127
127;80;96;100
104;110;108;100
92;119;111;68
84;88;111;119
119;100;92;84
100;95;72;72
104;111;111;85
68;88;100;84
72;84;108;103
92;76;64;68
88;95;102;111
111;68;64;72
72;84;92;102
111;87;79;69
64;108;91;64
72;80;109;109
109;100;72;93
111;111;119;111
86;80;104;119
119;111;78;72
96;127;103;88
76;80;116;111
78;72;84;92
96;108;111;111
111;116;96;88
100;88;80;80
80;103;111;111
111;64;72;88
96;88;68;64
64;64;76;92
95;76;64;64
80;84;95;95
95;95;92;109
111;87;64;88
111;111;85;68
72;96;111;111
111;80;68;85
64;72;100;96
80;88;103;102
100;108;119;95
64;80;110;110
119;95;68;80
96;111;108;88
80;68;68;88
111;77;64;64
88;87;64;64
92;94;92;92
109;77;64;96
109;92;72;64
64;64;68;80
72;84;76;89
95;79;75;79
65;72;109;87
64;64;80;111
111;94;84;72
68;68;92;109
109;95;88;84
88;92;100;111
95;101;72;95
111;117;125;119
117;96;80;80
88;88;88;80
92;100;84;80
88;111;111;111
111;92;76;72
80;96;110;111
111;84;77;109
96;76;64;64
94;100;100;94
92;108;100;108
111;111;95;72
80;88;100;96
80;92;111;64
80;108;111;95
68;72;80;92
100;92;80;72
101;111;95;95
64;68;84;111
111;111;105;88
76;72;88;94
108;96;80;92
96;80;68;72
92;102;109;108
102;96;72;64
68;64;84;93
103;107;111;111
111;92;80;72
80;80;80;80
95;84;72;72
84;103;79;52
80;95;95;109
101;80;72;68
72;92;95;109
79;64;92;95
79;64;80;88
88;92;84;84
95;88;88;111
64;64;76;95
95;79;64;64
80;111;79;64
94;95;68;64
84;95;93;76
64;88;111;87
64;80;104;100
80;72;68;72
80;92;84;80
88;88;80;80
88;84;88;80
95;72;56;52
48;64;84;95
40;68;95;63
68;87;95;95
103;88;72;72
100;95;64;80
100;92;92;88
88;111;95;95
64;84;111;79
64;78;79;64
72;92;111;95
111;68;80;92
111;110;100;88
76;64;68;84
84;94;111;95
64;72;84;84
76;84;111;71
64;76;92;106
95;71;64;68
72;88;92;95
79;64;80;109
95;71;64;64
100;100;100;101
111;95;79;64
96;100;72;64
72;84;105;95
56;64;88;80
88;109;95;95
87;64;64;64
72;68;64;72
95;80;64;64
72;90;95;95
95;95;79;64
92;111;95;95
64;96;111;64
80;96;111;95
64;96;111;70
72;96;104;111
79;64;64;80
84;72;64;64
80;86;92;95
95;64;64;80
94;88;72;64
72;68;64;80
84;90;95;79
52;84;95;103
95;95;109;92
80;88;100;111
100;72;72;88
103;93;64;64
76;94;107;95
95;87;77;64
92;111;109;92
80;64;68;92
111;109;100;100
104;111;73;80
100;110;92;88
88;100;111;111
111;116;100;80
95;72;80;84
100;96;96;92
100;111;87;64
80;102;101;100
88;80;72;72
100;103;95;80
68;64;60;56
48;84;95;52
64;72;86;95
95;84;68;68
76;95;95;95
111;107;111;111
111;72;80;108
117;96;80;88
100;111;111;100
92;84;88;88
111;87;64;72
111;101;84;64
64;64;60;52
64;103;95;79
95;111;108;96
100;80;68;80
103;94;92;108
111;111;95;84
68;72;84;111
95;64;80;96
111;102;92;84
80;80;94;100
108;111;87;73
72;119;109;95
68;72;88;119
68;80;108;111
111;70;68;64
80;92;101;111
95;78;64;92
111;111;100;96
96;88;80;80
80;84;84;80
102;71;64;68
84;84;95;77
52;64;76;92
95;95;88;76
64;69;95;84
84;64;52;64
72;95;95;95
95;72;52;64
80;109;75;56
64;84;92;92
84;111;87;79
64;92;95;77
64;76;98;95
60;80;111;95
64;80;108;111
109;73;64;88
111;75;68;84
96;84;80;100
111;111;111;95
64;100;117;111
85;80;100;111
64;104;108;108
108;119;119;127
119;124;104;84
80;100;116;127
78;88;108;119
125;117;108;96
88;92;84;96
104;119;111;111
76;96;125;111
80;80;110;95
68;108;119;95
80;91;68;88
92;84;92;111
111;91;68;68
80;92;100;102
92;100;88;84
100;111;105;88
72;64;64;76
80;80;80;88
95;95;60;64
84;76;64;64
64;64;64;76
72;64;68;68
85;95;95;79
56;72;103;95
95;111;100;84
80;80;84;94
94;111;102;88
80;88;110;95
64;80;96;100
102;92;100;111
111;64;80;111
111;73;72;100
111;95;95;111
111;80;95;100
80;72;68;64
100;111;79;64
102;95;64;68
88;100;88;72
64;64;68;92
95;80;68;68
76;88;88;84
84;72;68;92
95;63;64;72
88;95;95;95
80;72;72;92
84;64;63;79
91;103;100;84
64;56;64;80
95;95;68;64
72;72;84;95
95;109;111;111
72;84;100;111
111;95;93;84
64;88;100;111
111;111;111;111
68;92;92;101
119;64;88;110
119;111;95;68
96;116;110;96
88;72;68;64
80;108;111;79
72;111;111;111
95;68;64;80
111;79;79;64
80;100;111;95
64;72;84;95
88;84;72;68
80;84;76;80
85;95;92;95
92;103;88;64
64;68;84;88
84;76;76;95
95;79;64;97
109;103;88;92
100;111;95;95
79;80;100;119
111;119;104;96
88;84;88;106
111;70;80;84
80;72;80;103
95;109;111;95
64;88;108;111
111;100;76;95
111;119;111;116
104;121;119;111
72;108;127;95
80;76;72;76
96;76;68;64
72;84;95;79
64;111;95;79
69;87;70;64
84;72;64;76
80;95;95;79
52;84;80;88
107;60;64;76
95;60;64;76
88;95;95;87
52;88;111;60
72;100;111;79
68;80;105;109
111;84;68;64
84;84;80;76
109;75;64;64
80;84;88;95
111;65;64;80
80;56;64;64
84;95;79;61
72;92;109;95
64;72;95;102
92;64;71;79
