## File generated by myo_cap software 
## Available from github.com/ddantas/myo_cap 
## Timestamp: 2020-01-22_13-12-40 
##  
## EMG capture settings 
##  
# sampleRate: 2000 
# channelsPerBoard: 4 
# nBoards: 1 
# bitsPerSample: 12 
# ch1;ch2;ch3;ch4
3311;-3900;-3900;308
176;192;191;142
128;142;119;80
80;114;111;64
72;100;111;75
68;96;111;66
64;94;95;48
64;94;87;48
72;95;55;48
64;87;63;40
64;87;47;40
64;79;55;40
66;79;32;48
76;79;32;56
79;47;48;76
63;36;66;79
38;48;79;63
32;68;79;32
52;78;63;32
64;87;47;48
78;79;36;68
95;47;48;72
87;36;64;93
59;48;84;87
87;48;74;95
44;68;95;63
64;94;95;52
64;92;95;48
64;100;87;64
64;95;87;48
72;103;58;64
76;95;61;64
80;95;40;68
87;71;40;68
95;40;64;84
63;44;76;79
36;64;87;47
48;76;71;32
56;79;63;32
56;79;61;36
66;79;32;48
79;55;32;64
79;32;48;79
47;36;66;63
63;32;64;77
32;48;71;55
32;68;79;32
36;68;63;32
48;76;63;32
32;71;79;32
48;79;63;32
40;76;79;32
48;79;63;32
40;78;79;32
64;87;55;40
72;79;40;56
91;53;52;78
79;36;64;91
54;48;76;87
36;64;95;55
48;78;95;44
64;95;79;48
76;95;62;64
84;79;48;76
76;87;40;52
68;95;55;52
64;87;46;40
48;72;79;36
40;68;79;32
48;79;63;32
36;79;63;32
32;66;79;28
40;76;63;32
32;64;79;33
40;66;63;24
52;79;39;32
68;63;32;56
79;24;48;71
55;32;66;63
32;52;79;43
36;68;63;32
56;79;37;40
74;63;32;52
87;44;44;74
87;47;48;68
63;40;68;79
43;48;72;87
32;64;87;55
36;72;87;63
44;76;95;40
64;95;87;40
64;95;59;64
72;95;52;48
64;87;95;42
64;90;79;44
72;95;71;48
72;95;48;64
92;63;48;76
95;40;68;93
63;52;82;79
40;64;94;63
48;76;87;36
64;85;71;40
68;87;53;40
40;64;79;32
32;56;79;34
40;74;63;32
40;78;63;32
56;79;37;48
60;79;30;48
76;63;32;48
64;63;20;44
77;63;32;40
64;79;30;40
74;55;32;64
79;32;52;79
42;40;68;79
32;64;79;42
48;76;79;32
64;87;63;40
68;95;44;52
82;79;36;68
95;40;64;94
63;48;68;95
61;64;84;87
48;76;95;55
48;86;95;64
76;95;48;64
90;87;48;80
95;46;64;94
95;44;68;84
79;48;76;95
49;64;80;95
36;68;87;79
40;68;95;44
52;76;79;32
64;87;63;36
70;87;47;44
79;79;32;64
87;39;40;68
79;32;56;79
47;40;70;63
32;48;79;39
40;64;63;55
24;64;79;63
32;64;79;39
48;79;39;36
48;79;55;36
68;79;32;40
52;79;47;36
64;79;32;40
52;79;55;32
64;79;32;48
64;79;39;48
78;63;32;64
87;42;52;84
63;40;76;95
47;64;80;87
40;72;95;48
68;95;71;48
82;95;44;68
95;63;48;72
95;71;48;80
95;40;72;95
95;48;64;64
87;79;40;72
95;63;48;78
87;42;64;84
79;40;68;87
36;52;76;79
40;72;87;47
32;64;87;45
52;79;63;32
40;68;79;32
40;76;63;32
32;64;79;24
40;78;63;32
36;64;79;24
48;79;36;32
32;64;79;28
32;72;55;32
48;79;55;32
56;79;47;32
40;72;79;32
40;70;79;34
40;70;79;32
48;85;63;36
48;86;63;40
64;91;63;48
56;86;79;40
64;91;61;48
64;91;79;40
64;94;79;40
52;91;87;40
68;95;63;48
78;95;54;64
86;87;44;72
95;59;52;84
79;40;64;95
45;64;90;63
40;76;95;36
64;91;63;44
74;87;42;48
86;63;32;64
68;79;32;52
78;63;32;64
79;32;52;79
39;48;74;63
32;48;79;63
24;64;79;34
32;68;79;32
44;79;63;24
48;79;33;32
40;70;63;32
56;79;39;32
52;79;55;32
52;79;32;40
64;79;39;48
76;63;32;64
64;79;34;48
68;79;32;64
74;79;32;64
76;79;32;64
83;63;32;68
95;47;48;64
87;79;40;68
87;79;40;68
84;79;36;64
95;63;48;64
95;71;44;68
95;63;48;64
93;71;40;68
74;87;40;52
72;87;45;48
72;79;32;48
56;79;63;32
48;79;63;32
48;79;63;32
48;79;55;32
48;79;55;32
50;79;47;32
36;66;63;20
44;75;47;32
40;69;63;18
44;70;47;24
36;71;63;24
40;71;39;16
24;52;71;31
32;64;79;47
32;64;79;32
40;71;63;40
52;79;55;36
56;79;63;40
64;87;55;48
76;87;38;64
87;71;40;64
87;71;44;68
95;40;64;95
63;64;90;87
48;82;95;48
72;95;71;52
82;95;71;64
92;95;48;64
95;79;44;76
72;95;51;64
64;95;71;48
64;95;55;48
64;87;71;40
64;95;47;48
68;87;47;48
64;87;43;52
64;63;32;48
52;79;55;32
40;71;63;24
40;71;63;20
32;64;79;24
48;79;39;24
36;70;63;32
40;75;45;32
32;56;79;24
36;66;63;32
48;79;47;36
56;79;46;36
40;76;63;32
48;79;63;32
44;79;63;32
48;76;79;32
32;68;79;32
40;74;79;32
40;72;79;32
56;87;63;48
68;95;40;64
72;95;54;48
64;90;79;40
48;76;95;48
48;78;87;36
64;95;55;48
64;86;79;40
64;95;55;48
64;95;47;64
78;79;36;64
82;79;32;64
72;79;32;40
64;79;38;48
68;79;32;40
52;79;47;32
64;79;32;44
66;63;20;48
71;55;32;48
79;47;24;56
79;24;40;64
79;22;40;79
30;32;58;79
39;32;64;63
32;56;79;39
40;71;63;32
64;79;39;40
70;79;38;48
79;71;32;64
87;42;48;85
63;40;72;87
36;52;87;55
48;76;87;36
64;87;79;40
36;72;95;63
36;72;95;63
44;76;95;63
48;84;95;59
48;84;95;48
68;103;63;48
72;95;50;48
68;95;79;40
64;93;71;40
64;94;79;40
64;86;79;44
48;78;79;32
48;83;63;36
44;70;79;32
40;76;79;36
32;66;79;36
32;64;79;32
32;66;71;24
40;79;39;32
40;70;63;20
44;71;63;24
32;63;63;24
36;64;63;20
36;74;55;32
52;79;32;32
48;79;63;32
52;79;47;32
44;72;79;32
40;64;79;33
36;68;79;32
44;79;71;32
48;79;79;32
40;68;87;45
36;72;91;36
52;87;55;40
64;87;79;40
72;95;46;48
64;91;71;40
72;95;55;40
64;95;63;40
64;95;63;40
64;95;63;48
64;87;79;36
48;74;79;32
64;87;63;36
48;79;79;32
48;79;63;32
40;68;79;34
32;66;79;24
32;60;79;39
32;64;79;28
32;64;79;28
32;70;47;32
44;79;39;32
60;63;22;44
70;63;16;48
70;63;32;40
71;55;24;48
71;63;32;48
79;55;32;56
79;55;36;48
68;79;32;48
70;79;32;48
64;87;55;40
64;87;53;40
48;84;79;36
52;87;63;40
64;87;71;48
64;90;71;40
52;87;79;40
64;95;63;52
87;79;40;64
90;63;52;74
87;40;72;95
46;64;90;79
40;68;95;51
64;84;79;40
64;87;71;40
68;87;36;64
79;32;64;76
87;55;40;74
63;40;64;79
32;52;70;79
47;36;64;79
24;48;70;75
35;40;64;63
24;48;79;20
32;60;63;28
32;56;63;22
20;52;63;20
40;68;63;24
56;79;47;36
71;63;32;64
79;34;48;76
63;40;72;79
32;64;87;47
48;72;79;32
64;87;63;40
70;95;46;52
86;63;48;40
84;79;40;64
85;79;40;72
95;44;64;87
63;64;88;79
48;82;95;40
64;90;95;44
64;95;55;48
64;91;79;40
64;95;63;48
64;95;42;64
68;95;40;64
95;47;64;86
63;40;64;87
38;48;76;63
32;52;74;79
32;56;79;55
40;79;63;32
40;76;63;24
48;75;47;32
44;79;47;32
48;79;39;32
40;71;63;20
40;76;63;20
32;56;79;43
40;71;63;24
32;71;63;32
52;79;47;36
52;79;63;32
56;87;43;32
48;78;79;32
56;87;55;48
78;79;40;52
87;63;40;68
87;36;64;93
55;52;80;87
40;64;95;63
48;76;95;44
64;88;95;40
64;95;71;48
76;95;63;40
64;80;95;40
48;80;95;44
52;70;95;42
40;68;91;47
40;76;79;32
40;72;79;45
48;78;79;32
36;76;79;32
48;87;47;32
52;79;55;32
48;79;43;36
48;79;63;32
40;76;55;24
32;70;63;20
48;71;47;32
32;70;63;20
36;71;55;24
40;71;63;24
56;79;30;32
48;79;63;32
64;79;39;40
56;79;55;36
64;87;36;32
64;87;59;40
64;95;47;64
78;79;38;64
68;95;53;48
68;95;63;48
64;94;63;48
64;87;79;48
68;95;79;40
48;78;95;55
64;86;95;48
52;80;95;46
52;86;95;48
64;95;54;48
68;95;40;36
48;87;79;36
52;79;63;32
48;79;63;32
36;66;79;16
50;79;47;32
48;76;55;20
32;68;63;20
52;79;24;40
71;63;20;52
70;55;32;44
79;31;32;64
63;32;48;71
34;40;66;55
22;48;68;47
20;52;76;63
24;64;79;43
32;48;78;63
36;68;79;32
40;70;79;32
48;79;55;32
40;76;79;32
40;72;79;32
36;72;79;32
56;85;63;32
48;84;79;36
64;90;55;40
64;87;63;40
64;86;79;36
40;78;87;40
48;84;79;40
48;76;95;44
48;81;71;36
48;79;79;32
48;79;63;36
52;79;63;32
48;79;55;32
48;79;63;32
52;79;47;32
48;79;55;32
64;79;24;32
60;63;32;32
48;71;39;20
36;69;63;20
32;64;63;16
32;67;63;16
48;79;20;32
52;63;39;32
48;79;39;32
48;79;39;32
48;78;47;32
40;78;63;32
52;79;55;32
48;79;63;32
48;79;63;32
48;76;79;32
64;87;55;48
64;87;63;48
68;95;55;40
64;89;87;40
48;86;79;40
40;72;93;63
44;80;87;40
44;76;95;36
68;95;42;48
78;79;36;64
68;87;47;40
64;87;63;36
52;87;71;47
32;52;76;71
32;68;79;32
32;68;79;32
48;79;39;32
40;73;63;20
40;79;47;32
48;71;63;20
32;69;63;16
32;68;63;16
48;71;47;24
32;52;63;31
24;56;63;20
24;60;63;26
40;71;47;32
40;68;63;24
32;71;63;20
32;52;79;43
32;48;79;55
32;52;79;55
40;74;79;32
40;74;79;34
44;79;79;32
40;72;87;59
36;68;95;42
36;68;95;55
40;74;95;36
64;95;63;52
78;87;44;68
95;63;52;86
79;48;72;95
51;64;94;63
48;70;95;43
64;82;87;36
64;93;63;40
70;79;36;52
52;87;43;32
52;79;63;32
48;78;55;40
64;79;28;48
70;63;24;36
60;71;31;36
48;79;31;24
32;60;63;16
40;71;47;16
32;64;63;20
44;76;47;32
64;79;36;40
74;63;32;52
79;63;36;64
87;32;48;79
63;40;72;79
32;64;87;63
48;74;87;38
64;87;63;52
80;95;44;44
64;87;63;40
64;95;79;48
72;95;53;48
64;87;87;44
64;92;79;48
64;95;71;48
64;95;59;48
80;79;40;64
70;95;40;48
87;71;40;64
87;32;64;87
55;48;79;79
36;64;87;63
40;72;79;36
52;83;55;40
76;63;32;64
79;36;48;70
79;32;64;79
39;40;70;63
32;48;76;79
24;64;79;28
32;64;79;35
32;68;63;20
32;48;79;55
24;64;79;32
52;79;63;32
64;79;47;48
52;79;63;36
64;87;47;32
52;84;63;40
68;87;36;52
84;79;36;64
87;63;48;72
87;36;64;91
63;48;72;95
44;68;95;63
52;87;87;44
68;95;71;48
78;95;55;64
92;87;48;48
84;87;44;40
64;87;79;40
64;86;79;32
48;87;79;32
64;87;46;32
40;76;79;32
48;79;47;28
36;70;79;24
40;71;63;20
32;64;63;20
48;79;38;32
68;63;20;48
78;47;36;66
47;24;60;63
24;48;77;31
40;70;63;20
52;79;36;40
70;63;32;64
79;32;52;79
47;36;64;78
55;32;64;79
36;44;68;79
32;64;86;47
32;64;87;47
48;82;63;32
40;78;79;32
64;93;55;40
48;76;87;36
44;68;95;55
40;68;95;40
64;84;79;40
68;95;55;64
90;71;48;72
95;48;64;87
71;48;72;95
42;64;87;79
40;68;95;42
64;86;79;36
64;87;63;40
72;87;40;32
52;79;63;32
36;72;63;32
48;78;55;32
40;68;79;32
32;68;63;20
24;60;79;39
20;60;79;32
56;79;39;32
71;63;32;48
63;24;48;71
55;32;52;79
42;40;70;63
32;64;79;32
52;87;63;36
68;87;34;56
87;59;40;68
87;47;48;78
79;36;64;95
44;52;79;87
36;64;95;95
40;64;84;55
40;72;95;61
48;80;95;42
48;80;95;44
48;84;95;44
48;76;95;50
40;76;95;40
44;72;87;63
36;64;84;59
36;64;85;63
36;64;87;43
48;76;79;32
64;87;55;40
68;79;47;48
76;79;32;52
87;47;44;76
63;32;64;79
32;44;78;63
32;64;79;32
48;68;63;39
36;64;79;47
32;48;68;63
32;56;79;47
32;52;79;47
32;68;79;34
32;56;79;47
32;56;79;47
32;64;87;42
40;76;79;32
44;74;79;41
40;68;79;32
52;79;79;36
64;87;55;48
78;79;40;64
95;47;52;76
79;40;72;87
44;64;87;79
44;68;95;63
48;76;95;52
64;84;95;63
64;90;79;40
40;74;95;44
64;87;79;32
48;76;79;36
48;79;55;48
64;79;39;48
79;63;40;64
87;42;44;70
79;32;64;79
47;44;72;63
32;64;79;39
40;66;71;24
48;78;47;32
68;63;24;48
79;30;32;64
63;32;56;79
24;48;79;55
32;64;79;32
48;79;63;32
64;79;55;51
40;64;87;47
38;48;70;79
34;64;70;87
47;48;79;79
36;68;95;47
40;76;95;50
48;80;95;52
40;80;95;44
64;92;95;44
48;76;95;48
64;95;71;52
82;95;48;64
95;63;64;88
79;64;84;87
48;68;95;63
52;76;95;44
64;90;63;48
76;87;36;64
87;63;40;70
87;32;56;79
79;36;64;79
55;48;72;79
32;48;70;63
24;52;79;55
32;64;79;39
24;56;79;47
24;56;79;47
20;56;79;45
32;64;79;33
32;52;77;63
32;56;79;55
36;64;79;38
40;68;79;32
52;86;63;36
64;87;36;52
79;71;32;64
87;34;64;87
63;48;76;95
40;64;93;63
48;64;95;87
48;76;95;48
64;92;79;48
80;95;46;64
80;95;48;64
84;95;48;48
95;63;52;84
95;40;64;90
63;48;72;95
44;64;87;63
40;68;95;45
64;84;63;40
72;87;45;52
84;63;40;68
87;32;64;87
47;40;72;79
32;64;79;47
40;70;63;32
64;79;47;40
72;63;32;64
79;24;40;64
63;24;40;60
63;24;40;71
24;52;79;23
24;54;79;31
36;71;63;20
36;64;79;28
36;64;79;32
44;78;63;32
48;76;63;36
40;72;79;32
52;79;55;36
56;86;63;40
40;66;79;44
32;64;87;55
40;76;79;32
48;85;87;36
64;91;71;48
64;94;79;40
64;95;79;52
48;76;95;50
64;84;95;48
64;93;79;40
52;87;79;48
72;95;51;64
76;95;36;52
91;63;36;64
87;38;40;64
79;32;52;76
63;32;52;75
47;36;64;79
24;56;79;20
36;70;63;24
32;68;63;16
32;60;79;24
36;64;55;16
32;64;63;16
32;60;63;32
48;77;47;32
48;79;45;32
48;79;47;32
68;79;32;40
74;79;32;52
79;63;32;64
87;38;48;78
63;36;64;87
47;52;80;79
36;64;87;63
47;64;84;79
48;84;87;40
40;80;95;46
48;84;87;36
48;82;95;40
48;78;79;40
40;76;95;38
48;79;63;40
48;87;63;40
56;87;55;32
48;77;63;32
48;79;47;32
32;68;79;32
40;74;63;20
32;56;79;39
32;60;79;39
24;56;79;43
32;56;79;26
32;58;79;30
32;70;63;16
32;64;63;22
32;66;63;16
32;58;79;35
32;60;63;32
48;76;63;24
48;79;47;32
40;77;79;32
40;76;63;32
40;74;63;32
40;72;63;32
36;68;79;32
40;76;79;34
32;64;87;45
36;70;79;40
32;68;91;63
40;68;95;40
48;84;87;40
56;92;71;40
64;87;79;44
48;80;87;32
40;64;87;47
40;72;79;42
40;76;79;36
48;79;63;32
32;64;79;55
32;68;71;24
32;64;79;36
32;64;79;55
32;48;70;63
24;56;79;39
24;64;79;39
32;68;63;24
32;60;79;34
32;68;63;16
32;56;71;31
32;64;79;29
26;48;75;47
32;64;79;39
32;64;79;55
32;64;79;43
32;56;79;63
32;64;87;55
32;64;93;45
48;76;79;36
64;93;63;40
72;95;46;52
87;79;40;68
95;52;64;87
71;48;80;87
44;68;94;79
48;72;95;61
64;94;79;48
64;76;95;63
44;72;95;47
40;72;95;55
48;80;87;40
40;72;95;42
48;83;79;32
48;76;79;36
40;78;63;32
36;74;79;32
48;79;55;24
40;74;79;32
40;76;63;20
40;79;55;32
64;79;24;32
74;63;24;44
79;47;32;44
79;43;32;64
63;24;40;56
63;24;52;79
47;36;56;79
55;36;64;79
34;52;79;55
32;64;87;47
40;76;79;32
40;78;79;32
40;70;79;32
40;76;79;32
52;87;63;32
72;95;42;64
95;63;48;64
95;50;64;84
79;40;64;72
87;44;64;86
87;44;64;87
63;48;72;95
55;64;80;79
42;64;86;79
63;48;72;95
63;48;68;95
40;76;95;42
40;66;87;55
36;68;79;55
32;64;78;79
32;56;79;63
32;56;79;63
32;48;68;63
47;40;64;79
36;48;70;63
32;52;71;63
32;48;70;47
32;48;73;63
32;52;74;63
32;64;79;47
40;70;79;32
52;79;63;32
64;87;47;48
76;79;32;64
92;55;48;76
79;32;68;87
52;64;84;79
36;48;64;85
71;40;48;86
71;40;72;95
40;64;84;79
63;64;84;95
44;68;95;79
55;64;86;95
40;72;95;63
40;72;87;63
40;64;95;63
36;64;87;55
48;78;79;36
64;86;79;36
64;87;53;48
76;79;36;66
87;41;48;78
63;32;64;79
38;48;74;63
32;64;79;55
36;68;79;32
48;76;63;45
40;79;63;24
36;64;79;32
32;64;79;20
44;71;63;32
48;79;47;32
64;79;32;52
79;63;32;56
87;47;36;68
63;32;64;79
42;52;76;79
40;64;82;63
36;64;93;71
36;68;95;55
40;64;90;71
44;68;95;63
52;64;84;87
44;72;95;63
40;72;95;71
48;90;95;71
48;74;103;52
64;84;87;61
64;80;95;71
48;80;95;63
40;72;95;52
48;80;87;40
40;64;87;63
36;66;87;36
48;84;63;32
56;87;47;32
64;79;39;48
68;79;32;40
79;47;36;64
63;24;36;60
55;24;58;63
20;52;63;31
16;48;63;39
20;52;71;26
20;52;79;39
32;64;63;20
32;70;63;24
48;77;47;24
40;68;63;24
44;78;47;32
79;63;32;64
79;32;52;66
79;32;64;87
47;52;84;63
36;64;91;59
48;80;95;55
40;76;95;55
48;76;95;38
48;82;95;40
64;95;55;52
68;95;63;48
72;95;51;40
79;79;36;64
84;79;32;52
79;63;32;64
87;55;36;48
78;79;32;64
87;47;40;52
79;59;32;64
79;32;40;64
55;32;64;79
24;56;79;32
32;64;79;28
32;64;79;28
32;64;79;39
40;68;63;20
32;64;71;33
32;64;63;20
32;56;79;26
32;70;55;32
32;66;79;32
40;72;63;24
36;64;79;55
32;52;74;79
63;48;76;87
47;56;78;79
40;64;87;63
40;74;87;47
40;76;95;50
48;80;79;44
64;86;87;40
48;86;95;53
44;64;89;79
40;72;93;63
36;72;91;55
40;70;95;47
36;64;87;63
32;64;87;63
32;64;87;55
32;64;87;63
38;52;79;63
32;64;87;59
42;48;76;79
32;64;87;47
32;64;79;47
36;70;63;24
44;71;63;32
56;79;24;32
68;63;20;48
79;24;32;56
63;20;48;77
39;32;66;63
28;48;71;63
36;48;76;38
32;68;79;36
36;72;79;32
32;68;87;46
48;70;79;32
64;87;63;40
74;95;40;64
91;63;48;78
79;40;72;95
42;64;93;71
48;80;95;48
64;88;95;44
76;95;54;64
86;95;50;40
82;95;44;64
91;63;48;72
87;40;64;87
63;36;64;87
63;40;64;87
63;48;76;79
46;64;81;79
47;52;74;79
42;64;82;63
36;64;78;79
32;64;87;32
40;78;63;32
64;79;32;32
56;79;43;32
56;79;43;32
48;71;63;24
44;71;63;24
32;60;79;32
36;73;71;47
32;64;79;55
32;64;79;45
32;64;87;38
40;79;79;32
64;87;44;48
68;87;47;40
68;87;36;48
72;87;36;48
91;55;44;72
87;40;64;80
79;36;64;87
59;48;76;87
79;48;68;95
79;52;76;95
63;64;82;95
55;64;88;79
44;72;95;63
48;80;95;55
44;68;95;50
40;72;95;42
40;72;95;53
40;70;95;55
36;64;87;59
32;64;79;47
32;64;85;55
32;64;79;24
32;64;79;37
32;56;79;28
32;52;77;47
20;52;79;39
28;48;76;63
28;48;74;63
32;56;79;63
32;64;79;43
32;64;87;55
36;72;79;38
40;64;79;63
44;52;84;44
36;66;87;47
40;70;79;34
36;68;79;32
64;87;46;40
70;87;36;64
86;63;40;87
95;47;64;86
50;64;86;63
44;68;95;61
48;80;87;50
40;72;95;44
40;68;79;55
42;64;83;79
32;68;87;63
36;64;79;79
36;64;91;47
32;64;87;47
32;72;63;32
70;63;32;52
76;55;32;44
79;46;32;70
63;32;52;64
63;20;44;79
26;40;64;63
26;40;64;63
24;52;79;31
32;48;71;63
24;52;79;55
28;48;74;63
32;64;79;55
32;52;76;71
32;64;87;47
32;64;85;63
32;68;95;55
40;68;95;47
40;80;87;63
48;80;95;44
52;92;79;42
52;80;95;44
64;92;79;44
64;88;95;49
64;90;87;40
48;80;95;44
64;95;79;40
82;87;40;68
95;46;64;80
95;40;64;87
79;40;68;84
79;36;64;87
63;40;64;87
55;40;68;79
32;64;87;42
32;64;79;55
32;56;87;47
32;64;79;55
36;70;71;26
32;64;79;55
32;64;79;46
32;48;71;63
32;52;79;55
32;52;74;63
32;64;79;63
32;56;85;47
36;76;63;32
36;68;79;36
48;79;63;47
36;64;87;55
36;64;87;47
42;64;84;79
36;68;95;63
40;72;95;63
48;76;95;63
44;68;95;79
44;76;95;63
64;84;95;44
64;92;87;36
76;95;54;64
92;79;40;64
87;79;40;68
95;63;48;64
95;63;48;74
87;40;64;79
79;36;64;87
63;40;64;87
47;44;68;79
39;48;74;63
36;52;79;63
32;64;87;63
32;48;78;63
32;52;79;28
32;66;63;24
40;71;47;20
44;71;47;32
56;79;24;48
79;43;40;68
63;32;52;79
32;40;68;79
32;56;79;55
36;68;79;32
48;70;79;32
52;79;79;32
64;87;39;48
82;63;36;48
76;79;32;64
93;47;48;76
63;40;76;79
55;64;86;79
48;68;90;44
48;76;95;42
48;87;79;40
56;84;95;40
48;78;87;47
36;68;87;63
48;72;95;40
64;86;79;36
64;87;55;36
68;87;36;48
84;63;40;68
79;32;64;86
55;48;68;79
32;48;75;63
32;64;79;34
44;71;63;32
32;56;79;35
20;52;79;39
32;60;63;28
32;64;79;32
32;71;63;24
52;79;63;32
48;79;47;32
48;79;55;32
64;79;39;32
64;79;34;48
76;79;32;40
72;79;32;52
87;55;48;70
79;36;64;93
40;64;87;63
48;64;84;79
40;76;95;63
40;72;93;71
44;68;93;63
55;64;72;95
79;48;76;95
79;48;64;95
47;64;90;95
79;48;72;93
63;52;76;95
51;64;84;87
36;64;95;63
36;68;95;46
48;79;71;32
40;68;79;39
40;72;79;36
40;76;63;32
40;76;63;20
40;68;79;34
32;64;79;32
32;64;79;39
32;64;79;47
36;40;68;79
42;48;68;79
32;52;78;63
43;44;72;63
55;40;64;87
32;70;87;36
44;72;87;40
40;72;79;32
48;84;63;40
64;87;55;40
72;87;44;64
87;79;40;64
95;71;48;76
95;48;64;94
75;64;84;95
48;72;95;59
64;84;95;61
64;92;87;40
68;95;63;48
84;87;40;64
95;51;64;82
63;40;68;87
38;48;78;79
32;52;79;75
34;48;76;63
32;68;79;39
32;64;79;47
32;56;79;55
34;48;72;63
24;52;79;63
32;48;72;63
24;48;79;34
32;64;63;24
48;79;47;32
64;79;24;48
76;63;32;56
79;32;64;79
55;40;64;79
32;64;87;63
40;68;87;36
52;82;79;40
68;95;40;64
86;63;44;40
78;87;36;48
83;63;40;72
79;40;64;87
63;48;76;95
55;64;80;95
55;64;87;87
48;80;95;71
52;64;84;87
40;64;91;71
36;72;95;55
40;76;87;41
52;84;79;36
64;87;63;32
52;87;63;40
64;87;47;40
76;79;32;64
87;36;40;68
79;32;48;76
55;32;64;79
47;40;64;79
28;44;75;63
47;32;64;79
55;36;64;79
24;52;76;71
24;52;79;63
45;40;64;79
32;48;77;95
32;64;79;63
32;64;87;63
32;64;87;63
40;72;87;42
64;86;79;40
72;87;40;64
95;54;64;90
79;48;78;95
48;64;92;79
48;76;95;53
64;92;87;48
76;95;44;64
94;87;48;48
80;95;40;48
64;86;79;40
52;84;79;36
64;91;63;48
64;87;63;38
64;82;79;32
40;72;79;39
32;64;87;44
40;64;79;47
32;64;79;47
32;64;79;47
32;52;78;63
32;64;79;63
28;64;79;63
32;64;87;63
32;52;79;63
32;64;87;55
36;48;68;79
38;48;83;63
32;64;87;63
36;64;87;63
36;64;86;71
36;72;95;87
44;64;87;79
40;68;95;40
48;89;79;40
48;82;87;71
50;64;86;79
44;68;95;48
48;84;95;48
64;93;79;44
68;91;79;48
64;95;79;79
52;72;95;63
64;92;87;40
48;72;95;63
48;82;79;36
52;76;95;36
52;83;63;48
82;63;32;68
47;48;76;63
37;52;79;63
32;64;79;63
33;52;79;55
32;64;79;55
32;48;77;63
32;56;79;43
32;56;79;39
24;56;79;63
47;36;64;79
24;52;79;47
32;48;76;63
32;48;72;63
42;48;76;79
38;48;72;79
63;40;64;86
51;52;72;87
55;48;76;95
63;48;76;95
54;64;88;87
44;72;95;71
44;76;95;63
64;88;95;63
48;76;95;79
52;68;92;87
48;68;95;79
48;76;95;79
44;72;95;63
40;72;95;79
44;68;90;79
48;76;95;46
40;72;95;53
40;68;87;47
36;64;87;63
36;66;87;32
40;70;79;32
48;79;63;24
44;76;63;32
36;64;63;22
54;79;39;32
68;63;24;48
79;39;32;64
63;24;52;79
63;32;44;78
63;32;64;79
55;48;70;79
42;64;86;79
53;52;79;87
46;64;80;79
53;64;91;79
44;64;94;79
42;68;90;87
40;68;95;50
48;72;95;63
48;72;95;63
52;64;86;95
48;72;94;95
63;64;86;95
44;72;95;79
48;72;88;95
50;68;95;95
69;64;80;95
63;64;95;79
71;64;84;95
71;64;82;95
79;48;76;95
55;64;82;95
63;48;72;95
63;48;68;95
44;52;78;79
39;48;74;79
63;48;64;87
63;32;64;79
79;32;64;87
63;40;64;79
47;48;68;79
36;48;76;63
39;48;64;79
33;40;68;79
47;48;78;71
36;52;87;79
63;48;68;95
55;64;87;63
40;64;87;79
40;68;90;95
63;64;76;95
51;64;94;79
58;64;88;95
63;64;80;95
63;64;90;95
48;76;103;79
48;72;95;87
48;68;95;87
52;68;90;95
59;64;88;95
63;64;90;95
52;72;95;63
48;72;94;63
40;68;95;63
40;68;91;71
36;64;95;63
36;64;87;63
32;64;87;63
34;64;87;55
32;64;87;55
32;52;76;63
32;52;79;63
32;48;74;63
32;64;79;55
32;64;86;55
32;56;87;32
36;70;79;39
36;64;79;39
52;79;63;40
64;87;55;63
36;64;95;40
48;79;79;32
64;91;63;48
72;95;59;44
87;87;40;64
95;55;48;76
95;48;64;86
95;48;64;90
79;48;72;95
50;64;95;87
63;64;92;95
67;64;88;95
79;48;80;95
44;68;95;63
48;68;90;79
40;64;95;79
50;64;84;87
40;64;87;79
44;64;82;79
36;68;95;63
40;64;86;63
32;64;87;63
44;52;76;79
32;48;74;47
32;64;79;47
32;52;79;30
32;64;79;33
32;66;79;43
32;64;79;47
32;64;79;63
38;48;68;79
34;48;72;79
63;40;68;87
63;48;72;95
63;48;72;95
63;48;78;95
59;64;86;95
48;72;95;79
48;72;90;87
48;72;95;87
56;64;88;95
48;72;103;79
54;64;92;95
48;76;103;62
64;82;95;79
64;86;95;48
64;93;87;48
72;95;63;48
72;95;55;52
84;79;40;64
95;47;64;84
79;40;72;87
44;48;68;79
79;32;52;78
87;34;48;68
79;32;48;68
79;32;52;79
63;32;64;63
32;64;79;47
32;64;79;63
36;52;72;79
32;64;87;79
40;64;79;63
40;68;87;38
52;76;79;32
64;87;55;40
72;79;32;64
87;32;64;79
63;40;68;87
36;64;87;63
40;68;93;63
40;72;95;40
64;92;71;48
48;76;87;63
48;64;84;95
42;72;95;87
48;72;103;63
48;80;95;63
48;72;95;63
48;86;95;40
64;95;71;48
76;95;71;36
48;80;87;38
64;93;63;40
72;87;52;48
86;63;36;68
87;36;52;85
55;44;76;79
32;64;79;63
32;64;79;28
48;76;63;32
64;79;32;52
79;47;36;52
71;63;24;68
79;34;40;66
47;40;70;47
24;48;71;63
26;48;70;63
42;48;68;79
33;52;79;79
55;40;68;87
55;52;79;79
71;40;68;95
47;64;93;79
55;64;84;95
44;68;95;63
40;76;95;44
48;82;95;79
48;76;95;71
48;80;95;79
44;68;95;79
48;64;95;63
48;72;95;55
48;76;95;53
52;80;95;40
64;91;79;40
52;80;79;34
64;87;71;40
70;87;32;64
87;39;40;70
87;40;44;68
47;36;68;79
79;32;48;76
63;32;52;79
39;40;66;63
32;48;79;35
36;64;79;24
48;74;63;24
52;79;24;48
79;35;36;70
63;32;48;79
32;40;66;79
32;48;70;63
63;40;68;79
79;40;64;91
63;40;64;95
95;40;64;84
95;55;48;64
95;47;64;88
95;44;64;95
61;64;84;95
53;68;103;71
48;72;102;71
48;80;95;48
64;94;79;48
68;95;61;64
90;79;48;80
87;40;76;95
44;64;84;79
40;64;87;55
48;76;87;36
64;87;63;36
64;87;32;52
64;79;47;52
74;63;32;48
75;63;32;52
79;47;32;64
79;47;32;68
79;39;32;64
63;32;36;66
79;24;40;70
63;32;52;63
47;40;64;63
28;48;71;79
47;40;64;79
39;44;76;79
63;40;64;95
55;52;87;79
53;64;84;87
48;64;94;87
55;64;92;95
59;64;95;79
52;68;95;87
50;68;103;87
54;68;90;95
79;64;86;111
87;64;76;102
95;52;80;101
95;48;72;95
95;52;72;95
95;48;68;103
71;64;84;95
79;48;72;95
55;52;80;87
40;64;82;71
40;64;87;55
48;78;79;32
64;87;63;40
72;79;32;48
79;63;32;64
79;32;48;78
55;32;64;79
24;56;79;47
43;48;79;39
32;52;79;55
32;56;79;63
36;68;87;36
36;68;79;32
40;74;79;32
64;87;53;52
79;63;36;64
95;45;48;48
87;61;40;64
95;53;40;64
95;63;52;84
79;40;64;87
63;48;68;95
55;64;87;79
42;72;95;62
40;72;95;40
64;95;59;64
76;95;55;52
95;79;48;80
95;44;64;95
95;48;64;84
71;48;70;95
71;48;72;95
47;64;80;95
71;48;68;95
55;48;76;87
63;48;68;87
61;44;68;87
63;40;64;87
71;32;64;79
47;44;64;79
36;48;76;79
63;40;64;79
41;52;79;79
33;64;72;79
32;52;79;79
55;48;72;79
32;64;87;63
40;64;91;47
52;87;79;36
72;95;40;64
95;79;48;76
95;50;64;90
79;48;68;95
87;48;72;95
63;64;95;87
52;76;103;67
64;84;95;79
52;72;100;87
52;72;102;95
79;64;84;109
79;64;84;79
63;64;82;95
61;64;94;95
59;64;88;95
50;64;87;95
71;64;80;95
63;64;88;95
55;64;84;95
40;68;91;95
79;48;68;94
95;44;64;87
87;40;64;87
63;44;72;95
79;36;52;79
79;36;64;87
79;40;64;87
47;48;76;87
63;40;64;79
59;48;72;87
63;48;72;95
63;48;72;95
79;40;64;94
87;40;64;95
95;48;68;95
79;48;76;95
79;48;72;95
61;64;94;71
48;72;95;55
48;84;95;79
52;64;87;95
52;68;95;71
48;76;95;63
48;84;95;79
54;64;84;95
61;64;88;95
71;52;76;95
79;48;76;95
79;48;64;95
79;52;78;95
63;52;72;95
63;64;87;95
52;64;76;95
50;64;82;95
63;52;76;87
46;64;93;79
38;64;79;79
36;64;87;95
63;48;64;87
47;48;64;87
79;40;64;85
79;36;68;95
79;40;68;92
63;48;68;95
75;48;72;95
87;46;64;95
95;48;68;95
71;64;84;95
79;64;84;95
69;64;94;95
79;68;88;95
59;68;103;79
52;72;98;87
48;80;103;79
52;84;95;87
52;80;103;79
56;72;103;79
48;72;95;95
79;64;84;95
59;68;94;95
48;72;95;79
48;76;95;55
48;80;95;44
48;72;95;71
40;64;87;63
40;68;87;63
36;64;87;55
32;64;87;63
32;64;79;63
32;56;87;63
32;56;79;63
32;64;79;63
32;64;77;63
32;66;79;28
48;79;63;32
56;79;47;32
64;79;43;40
72;79;32;40
78;71;32;64
87;47;40;70
79;36;48;78
87;38;48;78
95;63;44;68
87;40;64;87
95;40;64;92
79;48;76;95
79;52;76;95
79;64;86;95
79;64;84;95
79;64;88;103
87;64;84;107
63;72;99;95
52;80;102;79
48;80;103;71
48;76;95;79
44;72;95;53
48;72;95;51
48;76;87;38
40;68;87;43
44;72;79;47
40;68;79;32
40;72;79;32
48;79;63;32
64;79;34;48
79;47;40;64
55;32;56;79
63;32;58;79
43;48;72;79
47;48;68;79
39;48;78;87
55;48;68;87
63;40;68;79
46;64;82;79
47;64;90;95
79;64;76;95
79;64;80;103
95;48;72;103
95;54;64;98
95;48;72;95
71;64;92;95
60;68;86;95
71;64;92;95
62;64;88;95
55;72;98;95
79;64;80;103
71;64;94;95
79;64;80;103
71;64;88;95
87;64;76;95
95;48;64;95
95;46;64;90
79;48;72;95
79;40;64;82
87;36;64;87
40;64;84;79
48;76;87;45
64;86;63;40
70;87;36;52
78;63;32;64
79;63;32;64
87;55;32;64
85;63;32;64
79;47;40;72
55;40;72;79
59;40;68;87
55;48;78;95
95;44;64;90
87;40;68;95
87;48;64;94
63;52;80;95
44;64;86;79
48;72;95;51
64;93;79;64
84;95;48;68
95;63;64;95
79;52;76;95
52;64;86;95
48;72;95;63
48;68;95;63
63;52;84;95
79;48;68;95
95;48;64;80
95;46;64;84
95;55;48;72
95;55;48;74
95;40;48;87
63;40;64;87
63;40;70;87
79;36;64;87
59;40;72;79
63;40;64;79
42;48;72;79
63;32;64;87
47;48;70;79
55;36;64;87
39;48;70;87
63;36;64;79
79;36;64;87
87;40;52;80
79;36;68;95
71;44;68;95
79;48;68;102
95;48;64;88
79;48;76;95
95;48;64;94
95;55;64;92
103;61;64;92
95;48;80;103
95;48;72;95
67;64;90;95
79;64;80;103
79;64;84;87
62;64;86;95
48;72;95;79
48;64;87;79
44;64;95;79
44;72;95;55
48;76;95;55
40;64;95;40
52;79;87;40
40;68;87;43
40;68;79;63
32;64;79;47
32;64;79;55
40;68;79;32
32;64;79;36
36;64;79;24
48;78;63;32
44;76;63;32
64;79;47;32
64;79;32;48
79;63;32;48
87;43;40;68
79;32;52;87
79;36;64;87
79;40;64;87
95;40;64;90
79;48;76;95
87;48;76;95
79;64;84;95
95;64;72;103
71;64;92;95
62;72;94;95
52;76;103;87
52;72;95;79
48;76;103;95
63;64;88;95
54;64;95;95
71;64;84;95
55;64;95;95
55;64;87;95
58;68;95;71
46;64;76;95
61;64;82;95
79;48;72;95
63;52;84;95
40;64;87;63
40;64;87;79
38;64;84;63
36;64;87;63
40;52;76;79
40;48;76;79
63;40;68;87
44;64;79;87
36;64;87;63
36;64;87;79
47;52;78;79
36;64;87;55
40;72;87;36
64;87;63;48
76;95;40;64
95;50;64;87
79;48;76;95
55;64;86;95
48;72;90;79
48;80;95;48
64;92;79;44
72;95;59;52
84;95;40;64
80;87;47;40
76;95;36;64
91;79;40;72
91;63;40;68
87;55;48;72
87;37;48;79
79;32;64;78
87;46;40;64
55;32;52;74
63;32;48;77
47;36;64;63
55;32;64;79
43;36;64;79
63;32;64;79
63;32;68;79
47;44;70;71
32;48;79;63
40;72;79;32
52;86;63;36
64;87;45;48
72;79;34;48
83;55;40;68
86;63;36;64
87;63;48;76
87;40;68;87
63;64;80;95
55;64;92;87
52;68;95;79
48;76;95;71
48;76;103;62
64;92;95;52
64;88;95;48
64;88;95;55
64;90;95;48
64;86;95;48
64;92;87;44
68;95;61;40
76;95;52;52
87;79;44;48
87;63;40;64
87;55;48;72
87;44;40;68
84;63;32;40
79;55;32;64
79;26;40;64
79;39;32;64
63;20;44;70
79;28;36;68
63;32;64;79
63;32;52;79
63;32;64;86
79;32;52;79
43;48;72;63
32;64;87;63
32;64;87;47
36;64;87;55
40;68;87;63
36;64;86;79
40;64;95;53
56;84;79;40
52;84;95;95
48;80;95;54
48;72;95;63
68;101;79;48
80;103;63;48
80;95;42;64
94;79;48;64
93;71;40;68
95;63;48;68
95;55;44;64
87;63;40;64
87;46;48;76
63;36;64;79
38;40;68;79
32;52;79;47
32;64;63;24
58;79;24;40
76;55;32;56
79;32;44;79
47;32;56;79
20;48;64;63
32;64;63;24
48;77;63;16
56;79;37;40
64;79;32;36
74;63;32;56
79;36;40;68
79;32;48;79
55;48;76;79
47;48;76;79
36;64;91;63
40;64;91;63
47;64;87;71
44;64;95;52
64;90;87;47
64;95;79;48
76;95;55;64
90;95;48;64
89;87;48;64
94;79;48;72
95;63;40;84
95;48;64;78
95;44;64;87
95;40;64;86
71;48;68;93
79;40;64;87
79;40;64;79
53;48;72;87
38;64;86;63
32;64;87;47
40;72;71;32
56;79;39;40
71;63;32;64
79;20;48;77
55;32;56;79
32;48;72;63
32;64;79;32
48;76;63;32
64;79;32;48
78;63;36;64
79;32;32;52
79;63;32;64
85;63;40;64
91;53;40;64
95;59;40;64
87;79;40;64
91;61;48;68
95;52;48;78
95;55;52;68
95;63;48;72
95;63;48;68
95;71;48;76
95;50;48;76
95;46;64;80
95;63;48;72
95;44;52;78
91;63;40;52
79;63;32;64
87;38;48;71
79;32;52;79
55;44;74;63
32;56;79;55
32;56;79;47
32;64;79;28
32;66;63;20
56;79;32;40
79;46;32;52
79;24;36;68
79;24;36;64
77;46;32;60
79;32;52;79
43;36;64;79
32;44;68;79
32;64;87;42
48;85;63;36
68;87;32;64
87;55;48;72
79;36;64;91
52;52;84;63
40;76;79;40
64;95;79;48
64;95;71;48
76;95;71;40
72;95;52;64
86;95;55;48
86;87;40;68
95;54;64;78
95;63;48;72
95;47;64;86
95;53;48;76
95;40;64;87
63;48;68;95
45;48;76;79
32;68;87;36
48;72;79;32
48;71;63;32
64;79;33;48
76;55;32;64
79;32;44;78
47;36;56;79
24;48;79;47
40;32;56;71
63;24;48;71
63;32;52;79
55;40;66;76
87;36;44;68
87;39;40;68
87;38;44;68
87;63;36;52
78;79;32;64
95;55;40;68
95;46;48;76
79;36;64;87
63;48;68;95
50;64;90;71
44;72;92;63
48;80;95;49
64;84;87;40
68;95;63;48
80;87;40;68
95;47;52;76
91;71;40;72
95;36;64;84
95;47;48;72
95;46;48;76
87;63;40;70
87;36;52;87
79;32;52;84
63;36;64;87
79;32;48;79
63;32;64;79
79;32;48;75
63;32;52;77
79;36;40;68
63;32;52;79
79;32;56;76
79;32;52;79
63;40;64;87
47;48;82;87
79;40;64;86
87;36;64;80
95;44;48;82
79;48;78;95
71;48;76;95
63;64;84;95
71;52;76;95
71;64;84;95
95;52;72;95
95;48;80;103
79;64;80;103
71;64;95;95
71;64;84;103
79;64;90;103
79;64;80;103
79;64;88;95
95;52;68;95
79;48;74;95
87;48;68;95
71;48;68;86
95;63;40;68
93;55;48;91
63;40;64;87
63;40;70;87
79;36;64;86
63;36;64;87
79;32;64;87
63;32;64;79
63;36;64;87
63;48;79;87
46;48;70;79
39;52;72;95
63;40;64;91
55;48;68;79
47;64;84;63
40;68;87;53
64;86;79;40
76;95;61;64
76;95;55;64
90;79;52;86
103;54;64;88
95;58;64;88
103;56;64;90
71;64;92;95
54;64;90;95
56;68;92;95
52;72;95;79
48;72;95;61
64;94;79;48
76;95;59;64
76;95;46;64
95;63;48;88
87;48;68;95
44;64;79;63
47;52;79;79
36;64;84;79
47;52;72;87
63;48;76;87
63;48;64;87
36;64;78;79
54;48;70;87
47;48;76;87
63;40;64;87
63;40;68;87
87;36;52;79
79;36;52;95
40;68;79;32
52;82;63;32
72;79;36;52
87;71;36;52
78;79;36;64
95;55;48;74
95;46;64;80
87;48;76;87
95;40;64;93
79;48;72;95
79;64;80;95
71;64;80;95
75;64;86;95
60;68;88;95
79;64;72;101
95;48;72;88
95;69;64;80
95;48;64;78
95;44;64;86
79;48;72;95
79;40;64;91
71;48;68;93
79;36;52;79
79;32;48;72
76;63;32;56
86;55;32;64
79;45;36;56
79;47;36;68
79;28;36;64
79;28;32;64
71;55;24;48
77;55;32;54
79;55;32;64
79;32;48;64
87;36;40;72
79;32;48;79
87;32;52;79
79;36;64;76
87;36;48;76
95;38;48;76
95;54;48;76
95;63;44;72
95;71;48;78
95;40;64;88
95;59;52;84
95;44;64;86
95;52;64;84
79;40;72;91
95;48;52;76
79;40;64;86
95;40;64;90
63;40;74;63
44;48;68;79
42;52;78;63
36;52;79;63
32;64;87;47
48;78;79;32
64;87;47;36
72;79;32;48
74;63;32;48
64;63;28;36
70;63;32;48
71;63;32;48
79;47;32;64
68;63;32;44
79;46;40;64
79;55;32;64
79;42;40;68
87;39;44;74
79;32;48;56
78;79;32;64
87;62;48;93
79;44;72;95
47;64;84;95
63;64;80;95
44;68;90;95
71;64;84;95
79;52;80;95
103;54;64;88
111;56;64;88
103;71;64;84
95;55;64;76
95;77;48;72
95;63;40;68
87;63;40;68
93;61;40;64
86;63;32;64
87;44;40;68
78;63;32;64
79;63;32;64
79;63;32;64
79;32;40;71
79;32;36;68
79;32;40;64
79;38;32;64
79;20;48;60
79;24;40;71
63;32;52;79
79;32;44;70
63;32;52;78
79;32;48;78
79;32;64;72
87;47;48;72
87;40;52;79
95;40;48;74
95;54;48;79
95;44;64;90
87;44;68;88
79;48;72;95
59;64;86;79
44;68;95;87
48;82;95;64
68;95;71;64
80;95;48;64
95;63;48;80
87;40;64;95
71;48;68;93
79;48;72;95
79;44;68;95
63;48;72;87
95;48;48;76
95;45;52;78
95;54;48;78
95;38;64;84
95;44;64;79
87;36;64;87
87;44;48;70
87;45;40;68
74;63;32;64
79;26;48;68
79;34;40;64
63;32;58;79
63;36;64;79
32;52;85;63
36;52;79;63
32;64;87;55
48;76;87;38
64;86;79;41
64;90;79;44
72;95;61;40
76;95;50;64
88;79;48;76
95;54;64;84
95;44;64;94
95;71;48;84
95;48;74;95
79;64;76;95
63;64;88;95
63;64;80;95
48;72;95;62
64;92;79;48
72;95;55;64
76;95;44;64
80;79;40;70
87;71;36;64
91;55;36;64
79;63;32;56
70;71;32;64
87;38;40;68
79;32;40;68
79;47;36;64
79;32;40;68
79;32;40;68
47;32;56;71
79;32;40;68
63;32;56;79
63;40;64;79
34;52;78;63
32;68;79;32
64;87;63;40
68;95;46;64
78;79;40;72
95;44;48;80
79;36;64;93
87;40;64;95
79;48;64;88
95;50;64;86
87;48;68;95
95;44;64;90
95;48;68;92
95;48;64;94
79;48;72;95
44;64;95;55
40;68;94;71
44;68;95;55
44;72;95;40
64;91;63;40
68;95;47;40
76;79;36;52
79;63;36;64
87;32;48;68
79;32;40;70
79;28;40;68
79;32;48;71
79;24;40;79
24;40;68;79
24;52;79;32
48;79;47;36
68;63;32;52
79;32;36;60
79;39;32;68
79;32;40;70
79;47;32;64
79;36;36;52
64;79;36;48
78;79;32;48
74;79;32;64
87;63;36;84
95;50;48;76
95;55;48;89
95;48;64;84
79;48;72;95
79;48;72;95
52;64;90;95
48;68;95;79
44;72;95;63
64;95;79;64
72;95;63;48
80;95;46;64
84;87;40;64
91;79;40;64
85;79;36;48
84;63;32;64
87;63;36;68
79;63;32;64
78;63;32;56
79;63;32;48
77;63;24;52
68;55;24;48
68;63;24;48
71;55;32;52
79;39;36;64
79;41;32;64
63;32;56;63
46;40;64;79
36;48;79;63
36;68;87;32
64;87;63;40
72;87;44;48
68;87;40;64
82;79;36;64
87;63;40;64
91;63;40;68
87;55;48;76
93;63;48;76
95;40;48;72
82;79;36;64
94;71;40;64
86;79;40;64
95;53;44;72
95;55;48;72
95;36;64;79
47;48;72;79
47;48;78;87
36;56;84;59
40;72;79;55
40;68;79;32
56;87;63;48
78;63;32;64
79;63;36;64
78;63;32;48
76;55;32;52
70;63;32;64
79;47;32;64
79;55;32;48
74;79;36;48
76;63;32;52
79;63;32;52
78;79;32;56
78;71;32;64
84;63;32;64
87;63;40;64
78;79;36;68
95;36;64;93
95;40;52;84
95;47;64;95
95;48;68;95
63;64;86;95
52;64;95;79
64;80;95;40
76;95;46;64
95;44;68;95
79;40;64;95
79;48;68;90
95;48;64;76
95;44;64;95
63;64;82;79
40;64;85;63
40;68;87;38
64;87;55;40
64;87;36;48
74;63;32;48
79;63;32;56
79;55;24;52
68;63;24;56
77;63;32;60
70;63;32;48
79;43;32;64
79;55;32;64
79;55;32;66
79;42;36;64
87;39;48;76
87;36;44;72
87;32;64;84
87;45;52;82
95;46;64;79
95;63;44;72
95;50;52;76
90;79;40;64
92;71;48;68
86;87;48;68
95;79;44;89
95;59;64;86
103;48;64;87
95;53;64;86
95;46;64;86
95;52;64;84
79;40;68;87
87;40;64;80
95;38;64;82
95;46;48;76
79;40;68;87
79;36;48;78
63;32;56;77
79;36;44;76
63;36;64;79
63;32;52;77
63;32;48;79
63;32;64;79
63;32;64;87
63;32;56;78
63;32;56;85
87;36;52;78
79;32;48;68
87;55;40;64
87;59;40;68
87;47;48;76
95;44;48;80
95;61;40;72
95;63;44;68
90;71;40;64
91;71;40;64
82;87;40;68
90;79;40;68
78;87;40;68
93;71;40;64
72;87;36;64
93;63;48;64
84;79;36;64
87;55;40;72
76;79;36;56
84;79;36;64
87;63;36;64
87;63;40;68
79;63;32;64
79;63;39;48
70;63;32;52
79;47;32;56
77;63;32;52
79;47;32;56
74;55;32;52
78;63;32;48
64;79;39;48
68;63;32;64
74;63;32;56
79;55;32;64
79;55;32;64
76;63;32;56
76;63;32;56
87;47;40;64
74;79;32;64
79;63;40;68
87;63;40;64
91;63;44;68
87;79;40;64
95;61;48;76
95;71;44;72
95;79;48;64
84;87;40;68
84;79;48;68
91;79;40;68
95;40;64;80
95;47;48;76
95;47;64;93
95;51;48;76
79;36;64;79
87;36;64;87
47;48;72;87
47;48;72;79
32;64;87;43
64;87;61;40
72;87;47;32
72;79;32;44
74;63;32;56
79;47;32;52
79;47;32;56
71;55;32;56
79;47;32;64
74;63;32;64
87;38;48;76
79;55;36;72
55;48;76;79
36;64;87;55
40;68;93;79
48;70;95;54
48;78;95;95
63;64;90;95
52;64;84;111
79;64;84;95
54;76;107;87
64;94;103;52
72;100;95;64
80;103;71;64
80;95;71;64
86;95;48;64
80;95;61;64
84;95;48;64
95;63;48;64
84;87;40;64
84;79;36;64
76;79;36;52
77;63;32;64
79;63;32;64
79;32;40;64
79;63;32;56
79;32;44;68
79;39;32;64
79;38;32;68
71;55;24;48
71;63;32;68
63;24;48;68
79;24;48;79
79;39;40;68
79;24;48;64
74;55;32;64
79;55;32;64
76;63;32;64
87;55;40;78
87;63;36;64
93;42;64;82
84;79;40;68
95;47;48;84
95;48;64;87
95;55;64;88
95;79;48;80
95;79;52;72
86;87;44;72
95;63;52;68
91;79;40;68
87;71;40;68
85;71;40;64
84;71;36;56
76;79;36;48
70;79;32;48
70;63;32;48
68;63;36;40
68;63;24;52
75;63;32;52
66;63;32;44
70;63;20;56
75;47;32;56
77;47;32;60
79;33;36;68
79;35;36;64
79;47;40;64
79;32;48;74
79;39;40;79
71;32;52;78
87;44;40;72
79;32;52;78
87;63;40;64
95;52;48;72
91;63;40;72
95;44;64;76
95;63;48;76
95;63;48;64
76;95;47;64
84;95;52;64
84;95;48;72
93;71;48;72
76;95;44;64
80;79;46;68
84;79;36;64
84;71;32;64
68;79;41;48
72;79;32;52
68;79;36;48
70;71;32;52
64;79;34;48
76;63;32;56
71;63;32;56
79;47;32;64
79;55;32;56
79;47;32;64
79;63;32;48
79;46;32;56
68;63;32;48
68;63;24;56
66;63;32;48
79;63;32;64
74;71;32;64
78;79;36;52
66;87;54;48
72;79;40;52
76;79;44;48
76;79;36;56
76;79;36;52
76;79;36;64
72;87;42;64
84;79;48;74
84;79;44;66
95;55;52;80
84;71;40;64
82;79;40;68
76;95;42;64
80;87;47;64
76;95;44;64
84;79;40;64
85;63;32;64
87;43;48;76
87;47;48;72
87;32;48;70
87;55;32;64
79;63;32;52
66;79;34;44
64;79;24;40
56;79;35;36
64;63;16;48
62;63;20;40
79;47;24;48
48;79;39;32
64;63;22;48
64;63;26;48
71;63;24;48
64;63;26;48
68;63;24;52
64;79;38;40
68;79;32;52
70;79;36;40
68;87;47;48
72;87;44;48
76;79;36;56
72;79;36;68
95;63;48;78
89;79;40;72
87;71;48;76
91;63;40;76
95;52;48;72
87;63;40;64
78;79;36;64
78;79;36;52
87;63;36;64
79;63;32;56
68;79;32;52
66;79;39;40
75;63;32;48
70;63;28;44
79;63;32;56
70;63;32;48
68;63;32;48
68;63;20;48
66;63;20;44
60;79;39;32
60;79;28;48
71;55;32;44
70;63;24;52
68;63;24;48
79;46;32;64
73;63;32;64
79;32;48;76
45;48;72;79
36;64;87;36
64;84;79;36
64;95;52;64
64;91;79;48
68;95;55;48
76;95;63;48
76;95;46;64
82;95;55;64
68;95;61;64
80;95;48;64
95;79;48;72
95;54;48;78
87;40;68;95
38;64;95;44
52;82;79;32
64;87;47;48
79;63;32;64
79;32;48;77
63;36;44;71
63;32;52;79
55;32;52;78
71;47;32;64
63;32;56;75
79;24;48;71
63;32;52;78
71;32;48;79
63;36;64;86
71;32;48;79
39;44;76;63
32;64;79;39
52;79;63;32
64;87;45;48
82;63;36;64
87;40;48;68
79;32;64;86
63;48;76;87
36;64;93;63
48;80;79;48
68;95;95;52
72;95;63;64
84;87;48;64
80;95;63;48
76;95;55;48
72;95;54;52
74;95;44;64
72;95;40;64
91;63;48;72
87;36;64;87
47;40;70;79
32;64;87;39
44;68;79;32
56;79;47;32
56;79;39;32
66;71;24;48
79;47;32;64
63;24;36;64
63;20;48;71
39;32;66;63
20;48;48;71
55;32;52;79
47;32;64;79
32;40;70;63
32;48;76;79
32;64;87;47
40;76;79;36
64;87;63;40
68;87;44;48
64;87;63;48
72;95;46;64
91;63;44;76
95;54;64;86
79;48;76;95
55;64;87;95
48;72;95;50
64;92;79;48
80;95;48;68
95;54;64;88
79;48;80;95
52;64;72;95
44;52;76;79
36;64;87;87
36;64;87;63
40;68;87;63
48;84;79;36
79;71;32;52
64;79;45;40
64;79;39;40
64;79;33;40
64;79;36;36
70;55;24;52
79;39;36;64
63;24;48;78
43;32;52;79
24;40;75;63
32;64;79;32
48;79;43;40
68;79;39;48
79;63;32;64
87;47;38;48
87;63;40;72
95;36;64;84
95;46;48;78
95;48;52;80
94;71;40;72
95;52;64;80
92;87;48;64
90;87;40;64
80;95;44;68
95;79;48;72
95;52;64;84
79;48;68;95
58;52;84;87
40;64;95;54
48;78;79;40
68;87;47;48
82;71;32;64
87;39;40;72
79;32;64;87
47;48;52;79
63;32;56;79
63;32;64;87
47;40;68;79
32;40;78;79
32;64;79;39
40;64;79;41
44;78;63;32
48;79;55;36
56;79;55;32
48;76;63;32
52;78;63;32
48;70;79;32
64;87;53;40
78;79;40;48
64;87;63;40
72;87;42;64
76;87;54;52
84;79;40;52
72;95;71;48
64;95;71;64
80;95;48;68
90;95;48;68
82;95;48;64
86;95;52;64
76;95;71;48
72;95;71;64
76;95;59;64
84;95;54;64
68;95;55;52
90;79;40;64
76;79;32;64
87;53;40;64
79;63;32;56
87;36;40;68
79;32;44;68
63;32;56;78
55;32;64;63
37;32;70;79
32;52;79;39
36;64;63;32
52;75;63;32
56;79;55;40
64;79;45;40
64;87;47;40
64;87;63;40
64;87;63;40
64;87;55;48
68;95;63;44
64;95;79;40
64;91;79;48
64;95;63;64
80;95;53;64
80;95;48;64
84;95;48;64
82;95;55;64
88;95;44;72
84;95;48;64
95;71;48;72
82;87;46;64
84;87;42;64
72;87;42;64
76;79;36;64
87;47;40;68
87;32;48;87
55;40;64;79
79;32;52;79
79;32;48;70
79;34;44;64
79;55;32;52
79;47;32;44
64;63;20;48
75;55;20;52
64;63;32;32
48;71;39;36
48;79;38;36
56;79;47;40
52;79;55;32
66;79;32;56
68;79;46;48
78;63;32;64
95;32;48;76
79;32;64;76
95;55;40;64
87;38;64;80
95;47;64;87
95;44;64;84
95;59;52;82
95;55;64;84
95;71;48;86
95;48;64;84
79;48;72;95
40;72;95;55
48;72;95;40
64;91;63;48
74;87;44;64
87;71;40;72
87;38;48;76
79;32;64;87
32;48;79;55
32;66;79;47
32;64;79;38
32;64;79;47
36;66;79;26
40;68;63;32
48;79;63;32
44;76;63;32
48;79;55;32
56;79;39;36
56;79;47;32
64;79;37;36
66;79;34;48
85;63;32;52
87;47;40;70
79;32;64;95
40;52;78;79
40;64;87;79
48;72;95;50
64;80;95;55
64;94;79;48
64;95;63;52
76;95;63;64
84;95;50;64
72;95;79;48
76;95;63;64
68;95;87;48
64;95;79;62
64;86;95;44
72;95;55;64
68;95;63;48
80;87;36;64
72;87;36;64
86;71;32;64
87;47;36;68
79;32;52;79
47;40;76;63
32;64;79;42
36;64;63;24
40;68;55;32
60;63;24;44
71;47;24;48
71;47;24;44
70;55;24;52
58;79;38;40
64;79;39;40
56;79;47;40
64;79;47;36
64;87;55;36
64;87;47;48
64;87;54;44
78;79;36;64
95;55;40;72
87;40;64;92
63;48;76;95
48;64;87;79
44;72;95;63
64;76;95;63
64;80;95;48
68;93;79;44
76;95;52;64
84;95;71;52
88;87;40;64
90;79;40;64
68;87;42;64
72;79;32;64
76;63;32;64
79;32;52;87
47;40;66;79
32;52;79;79
32;64;79;47
40;64;79;24
52;79;34;36
71;63;32;48
79;39;32;56
79;24;48;76
55;32;56;79
32;52;79;43
40;64;79;32
52;86;63;36
64;87;45;48
68;79;79;36
64;91;71;40
66;94;63;44
68;95;63;52
84;95;52;64
82;95;48;64
84;95;44;68
80;87;44;64
82;87;44;64
80;95;52;64
89;79;40;72
95;40;64;87
79;48;68;95
47;64;86;79
40;68;95;55
52;82;79;40
64;95;55;40
72;79;32;64
87;55;44;68
79;32;48;72
63;32;24;56
79;28;40;74
55;32;64;71
63;32;56;79
43;40;69;79
28;48;78;47
32;64;63;37
32;74;63;32
56;79;47;40
56;79;47;40
68;79;32;52
79;47;32;64
79;34;48;79
63;40;68;79
32;64;87;47
48;70;79;32
64;87;55;40
68;87;42;64
87;79;40;68
95;52;48;72
95;40;40;64
68;95;52;48
92;55;48;64
80;79;40;64
91;59;48;92
79;48;74;95
63;44;64;93
63;40;72;87
40;64;92;63
48;76;87;38
48;79;87;46
52;86;63;40
72;79;36;52
64;87;55;36
64;87;47;48
64;79;47;36
66;79;38;40
70;79;32;52
56;79;32;48
48;79;47;32
48;79;31;48
60;79;32;40
71;63;24;48
56;79;28;48
70;63;32;52
64;79;37;44
76;63;32;52
68;79;39;48
68;79;38;48
64;87;55;40
52;83;63;32
64;87;47;48
79;79;32;64
87;55;48;78
79;40;76;95
45;64;87;79
40;68;95;63
52;78;95;48
64;93;63;48
76;95;40;64
95;63;40;64
72;95;36;64
84;63;40;64
72;79;40;40
68;79;32;52
64;79;39;48
68;63;32;52
56;79;35;40
64;63;24;52
60;79;39;36
64;79;24;48
79;47;24;56
79;30;40;68
63;32;52;79
28;48;75;47
36;64;79;24
52;79;63;32
64;87;39;48
79;63;36;70
79;32;52;78
79;32;40;72
63;32;64;79
36;52;78;79
36;68;91;47
52;84;87;44
64;95;71;40
84;95;40;68
76;95;40;64
82;95;40;64
72;95;48;64
95;63;64;84
79;48;80;95
44;64;94;71
48;76;87;36
68;95;54;48
82;79;36;64
87;55;48;74
79;36;48;76
79;32;64;87
39;48;79;63
36;66;64;79
32;56;79;47
40;74;79;32
40;78;63;32
68;63;24;48
64;63;28;36
68;63;16;48
64;63;16;48
79;43;32;64
76;47;32;64
63;32;56;79
34;36;68;63
32;64;79;55
48;76;63;32
64;79;36;48
85;63;32;48
84;63;40;72
79;32;64;87
54;52;80;79
40;68;95;40
52;84;95;55
48;72;95;59
48;72;95;40
64;95;79;48
68;95;63;48
64;94;79;40
76;95;53;64
64;95;55;64
76;95;53;48
64;93;71;36
64;87;55;44
74;79;36;52
86;63;40;68
79;32;64;79
36;40;70;79
32;56;79;35
44;70;63;24
52;79;34;36
64;63;24;48
79;47;24;48
79;47;31;44
68;63;20;48
71;63;24;36
52;79;47;32
64;63;22;40
48;73;71;20
48;77;79;32
40;74;79;32
52;79;79;40
56;79;79;32
56;82;79;36
68;95;44;64
90;63;44;72
95;46;64;86
79;48;76;95
52;64;95;63
48;80;95;47
64;95;79;48
80;95;48;64
84;87;48;64
95;71;52;64
76;95;55;64
78;79;36;64
68;87;55;48
64;87;36;64
82;63;32;56
79;63;32;64
68;79;32;48
70;63;32;48
56;79;47;40
64;63;24;48
79;45;32;64
63;24;44;79
55;32;64;79
32;48;71;63
32;56;79;36
40;78;63;32
64;79;37;40
74;79;32;64
87;47;40;68
87;38;36;68
79;32;56;87
79;40;64;84
79;40;64;95
53;48;74;95
40;64;95;55
48;78;95;48
64;90;87;40
64;95;71;48
64;95;79;48
90;95;48;72
95;54;64;90
87;48;76;95
46;64;95;63
48;76;95;42
64;82;79;40
64;87;63;36
64;87;46;44
79;71;32;64
87;47;48;76
79;36;36;68
87;47;32;64
79;55;32;48
56;79;30;36
64;63;24;40
44;77;63;32
48;79;47;40
52;79;39;36
70;63;32;40
52;79;47;32
68;79;32;48
79;55;32;52
79;46;44;76
63;32;68;79
32;64;87;47
48;76;79;32
64;87;47;48
84;63;36;64
95;52;48;78
79;40;64;95
61;52;68;95
63;48;84;79
40;80;95;79
48;80;95;63
52;80;95;59
64;94;79;40
64;88;95;48
64;87;95;44
64;94;79;48
64;94;63;48
72;95;47;64
76;87;36;64
87;55;40;64
79;63;32;64
79;34;48;68
79;63;32;64
72;79;32;48
56;79;36;36
64;63;32;36
56;79;30;44
79;39;40;64
63;20;48;78
63;32;64;79
34;48;76;63
45;40;76;63
32;68;87;47
40;64;87;44
36;64;91;42
48;79;79;44
48;79;87;36
52;87;71;40
48;84;79;40
72;95;47;64
72;95;63;52
80;95;44;64
64;92;87;40
64;86;95;79
64;88;95;48
64;95;71;52
68;95;71;48
68;95;52;64
64;94;63;40
64;87;55;64
87;63;40;64
84;63;36;64
64;87;47;40
74;71;32;64
76;63;32;48
70;63;32;48
64;63;24;48
63;20;48;66
63;24;48;79
26;40;70;30
24;56;79;20
36;71;47;32
52;79;39;32
56;79;36;36
52;79;47;32
64;79;32;32
48;79;63;32
56;79;45;64
78;63;32;64
87;47;48;72
79;32;64;87
79;40;68;95
36;64;87;79
44;64;90;63
40;68;95;63
40;74;95;63
64;87;95;48
64;86;87;48
64;94;79;48
76;95;44;52
89;79;40;68
95;63;40;64
72;87;38;56
86;63;32;72
63;40;64;79
32;52;79;79
32;64;79;55
36;68;79;63
32;64;79;47
40;68;79;32
40;74;63;24
52;79;30;48
56;79;37;40
56;79;24;48
58;63;43;40
56;63;28;64
79;47;32;64
64;79;45;40
52;79;47;40
64;79;34;64
83;63;32;64
79;32;56;74
79;32;64;87
55;40;68;87
87;36;64;95
63;64;84;61
40;80;95;48
64;92;95;50
64;88;95;48
64;95;79;52
64;88;95;52
76;95;61;64
68;95;79;52
72;95;52;64
82;95;47;64
84;79;36;64
68;87;55;40
64;87;63;40
68;87;40;56
79;63;36;64
79;63;32;64
87;47;44;64
79;32;48;79
55;36;68;79
37;36;64;63
32;52;77;79
28;48;75;63
32;64;79;28
44;79;55;32
64;79;32;32
64;63;24;52
79;34;48;68
79;36;48;77
63;32;52;68
79;32;40;68
87;45;40;48
72;63;32;64
87;38;48;68
87;36;48;79
63;32;64;87
32;64;87;63
40;68;95;44
64;93;63;48
68;95;63;48
48;82;87;40
64;79;87;32
52;84;79;40
76;87;40;40
83;63;36;64
77;79;32;64
87;32;64;79
32;56;79;63
32;64;79;32
52;79;63;32
64;79;45;40
74;63;32;64
79;34;40;64
63;32;52;79
39;40;76;63
24;48;79;39
28;48;68;63
24;48;79;47
32;64;63;24
48;71;63;32
36;68;79;32
64;79;39;36
52;79;63;32
64;87;39;52
64;87;51;40
64;87;47;40
68;87;38;64
85;63;36;64
72;79;46;52
72;87;46;48
91;63;44;76
79;40;72;87
54;64;84;87
40;64;95;87
48;72;95;75
64;95;79;48
52;82;87;40
64;87;63;44
64;94;63;40
64;91;63;44
56;86;71;32
48;79;79;36
48;79;79;32
66;79;36;52
64;79;47;40
68;79;32;40
64;63;24;48
64;63;20;32
40;71;47;32
56;63;16;36
64;63;20;40
64;63;16;40
60;63;20;44
63;24;32;52
79;46;32;64
79;24;48;77
55;32;64;79
36;48;66;79
79;32;64;87
44;52;87;63
40;76;87;36
68;95;63;64
68;95;52;64
78;95;44;64
68;95;63;48
88;87;44;64
95;71;48;76
95;44;68;95
63;64;82;95
44;64;95;63
64;90;79;40
72;95;44;64
95;63;40;72
87;36;64;82
63;40;74;79
36;52;52;79
59;32;56;79
32;52;78;39
36;64;79;39
40;73;63;32
48;79;63;32
44;79;63;32
32;71;63;32
44;79;35;32
48;79;63;32
52;75;63;32
44;71;63;32
52;79;55;32
68;79;38;48
79;63;40;68
79;32;64;87
53;48;74;79
36;72;87;38
64;86;79;40
72;95;55;52
80;80;95;40
64;95;63;48
76;95;55;48
64;88;95;48
64;95;79;48
64;95;79;64
76;95;63;48
64;95;63;48
64;95;63;48
64;87;79;48
64;91;79;52
76;87;42;64
72;87;36;48
79;63;32;64
87;32;52;79
55;40;70;79
32;56;79;38
48;76;63;32
64;87;43;44
76;63;32;52
79;63;32;52
79;55;32;52
77;55;32;58
79;39;32;64
79;47;32;70
63;32;52;78
63;32;64;78
39;40;68;79
32;48;74;79
32;64;87;34
40;72;79;40
52;87;63;36
40;76;79;32
64;87;63;48
78;95;40;64
95;59;52;78
87;44;64;95
63;64;95;63
52;80;95;54
64;84;95;44
64;82;79;40
64;91;79;40
74;87;40;44
56;87;63;40
64;87;36;48
56;79;63;32
56;79;24;48
56;79;55;32
56;79;47;36
48;79;39;36
64;79;26;40
48;79;47;32
64;63;32;56
63;16;48;77
35;32;58;63
20;48;71;39
32;60;63;30
48;76;63;32
66;79;32;48
74;63;32;64
66;79;32;32
52;79;55;36
56;79;39;64
84;63;36;68
87;63;40;68
91;63;48;72
87;63;44;64
76;87;44;64
78;87;40;64
64;95;71;48
68;95;52;48
84;87;40;64
95;79;48;76
95;44;64;94
71;52;76;95
40;64;95;44
64;86;79;40
72;95;47;64
87;63;40;74
79;32;64;52
79;79;32;64
79;63;32;64
72;63;32;64
79;47;40;70
55;32;64;79
37;36;66;63
24;40;71;63
24;44;71;47
40;68;63;32
40;71;55;32
56;79;34;36
68;71;28;44
79;55;32;64
79;32;48;74
63;36;64;79
32;64;87;42
48;78;79;36
64;95;55;48
78;87;40;64
95;46;52;80
79;40;48;76
79;36;68;95
51;64;84;95
48;76;95;63
48;82;95;63
64;90;95;48
64;90;95;52
64;90;95;44
64;95;79;48
64;94;71;48
48;78;95;44
40;74;87;40
48;79;63;36
64;87;39;48
79;63;32;56
87;38;36;64
79;32;48;76
55;32;64;63
32;48;74;55
32;56;63;20
48;58;63;24
44;75;47;32
56;63;26;32
44;71;55;32
48;79;35;40
71;63;32;64
79;38;36;68
79;32;48;76
63;32;52;74
63;32;48;78
63;32;64;87
39;48;72;79
44;48;72;95
40;64;84;63
40;72;94;63
40;72;95;63
64;95;63;76
95;71;48;80
95;63;64;68
95;48;52;80
95;55;52;72
93;63;40;64
95;44;64;84
63;48;72;79
36;64;79;38
40;74;79;32
44;76;79;32
40;68;79;28
40;70;79;32
36;71;63;24
32;64;79;36
32;68;63;20
48;79;47;24
32;64;63;28
40;78;43;32
32;71;63;32
40;71;63;32
48;74;63;32
68;63;32;40
52;79;47;36
64;63;32;48
68;79;32;64
87;44;48;68
86;63;40;74
87;40;56;80
63;48;72;87
40;64;86;55
40;68;95;55
48;80;95;87
48;78;95;44
68;95;63;64
48;68;95;63
48;78;95;55
48;76;95;50
48;80;95;48
48;76;95;50
48;72;87;32
48;74;87;40
40;72;87;36
52;85;63;32
52;79;47;36
52;79;63;32
48;79;32;32
48;79;55;32
40;71;55;20
40;71;55;32
44;75;31;32
44;77;47;20
48;79;39;32
48;79;63;32
64;79;32;44
78;63;32;68
79;32;48;79
63;32;64;87
39;48;76;79
32;64;79;32
56;79;79;32
64;87;55;48
78;79;36;68
95;47;64;86
79;48;44;80
79;40;64;95
55;52;86;79
63;64;84;95
64;95;79;48
64;92;79;48
48;72;95;58
48;78;95;54
48;87;79;44
64;87;79;40
64;87;63;40
64;95;63;40
48;79;63;32
64;87;47;44
78;63;32;48
68;63;24;48
64;79;24;32
40;71;47;32
52;71;22;36
60;63;20;48
68;63;32;8
44;79;47;32
36;71;47;36
60;63;16;48
64;63;20;44
64;79;36;36
76;63;32;48
64;79;32;48
64;79;32;64
79;63;32;64
87;46;48;68
87;44;48;76
79;36;64;76
63;48;68;87
59;48;78;95
46;64;84;79
44;64;91;79
48;76;95;63
44;76;95;55
40;68;95;63
48;82;95;55
48;76;95;52
64;92;87;48
52;82;95;44
48;78;95;44
40;76;87;40
64;95;52;64
74;79;36;64
87;63;40;66
79;63;32;64
87;47;40;64
79;47;36;64
79;32;48;64
79;28;48;70
47;40;58;78
43;36;64;63
32;56;79;45
32;64;79;39
32;68;79;24
32;64;79;32
32;64;79;55
32;64;87;55
32;64;79;63
36;64;85;63
40;70;95;46
48;80;95;40
64;95;63;64
76;95;50;64
80;95;63;52
64;94;87;48
64;90;79;48
52;88;95;46
68;95;75;68
84;95;48;64
76;95;46;72
90;79;40;68
95;55;52;72
87;40;52;79
63;36;64;79
47;40;68;79
32;56;87;55
32;64;87;39
32;64;79;55
24;52;75;63
32;64;79;55
32;64;79;34
36;66;63;32
32;75;63;32
52;79;47;32
52;79;55;32
64;79;32;40
48;79;38;36
48;79;55;32
40;70;79;32
48;79;63;40
56;79;63;32
64;79;45;48
64;87;63;44
84;79;48;68
87;71;40;64
84;71;44;40
64;95;63;40
80;79;40;64
64;95;63;48
64;95;46;64
72;95;50;64
84;87;48;68
95;40;64;86
95;44;64;72
86;63;40;70
87;32;64;72
79;32;52;79
63;32;56;64
79;47;36;68
63;32;64;76
39;40;64;79
32;68;63;24
24;56;79;30
32;64;79;20
32;58;79;20
32;64;63;24
36;68;55;24
44;71;63;24
32;68;63;20
44;70;63;24
32;68;63;24
40;69;63;32
32;64;79;33
32;64;79;32
40;70;79;32
56;87;45;48
64;79;36;52
68;79;36;64
72;79;32;64
87;63;48;68
95;63;48;80
95;44;64;92
59;48;76;95
47;64;86;55
40;68;95;47
64;87;79;48
68;95;59;52
86;79;40;64
87;71;40;68
91;47;48;64
87;63;40;76
79;32;64;68
76;63;32;48
52;79;63;32
56;79;39;44
71;63;32;40
78;47;32;64
79;36;32;52
79;30;40;70
38;32;60;31
16;40;63;55
24;48;71;47
24;56;79;47
32;64;79;45
32;68;79;32
40;76;79;36
36;68;87;32
48;87;63;40
52;87;63;40
64;87;40;40
52;87;63;40
70;95;42;64
72;95;40;64
91;63;48;68
95;63;48;76
95;50;64;72
95;63;48;72
95;63;64;72
95;46;64;88
79;40;64;76
63;40;64;87
36;64;86;63
38;48;76;79
32;64;79;79
36;56;87;63
36;56;87;55
40;68;87;45
48;78;55;47
44;79;63;32
32;70;63;24
32;68;63;20
48;79;38;32
44;71;63;32
40;79;47;32
48;77;47;32
50;79;26;32
36;68;63;20
48;79;55;32
48;79;63;32
48;79;63;32
36;64;79;38
48;86;63;40
68;87;46;48
76;63;32;64
79;63;48;76
79;40;64;64
95;36;64;95
63;48;76;95
50;64;88;79
48;68;95;79
48;72;95;52
48;84;79;44
40;72;95;55
44;78;95;40
48;80;95;44
48;84;79;36
36;64;87;36
40;68;79;36
56;79;55;36
64;79;34;40
52;79;45;36
56;79;24;40
56;79;47;32
52;79;39;20
48;71;63;32
48;79;37;40
71;63;32;48
64;63;24;40
66;63;32;56
79;32;48;64
63;32;56;79
32;40;72;63
24;56;79;47
32;68;79;39
36;68;79;32
68;79;32;52
76;79;32;64
79;79;36;48
64;87;63;40
74;79;36;64
76;87;40;64
78;87;40;64
94;63;48;84
95;55;52;72
92;71;40;68
95;44;48;72
95;51;48;78
95;46;52;72
79;36;64;91
79;40;64;76
39;64;79;63
79;48;78;71
48;79;79;36
40;78;71;40
64;79;59;32
52;79;55;32
32;68;79;28
48;79;55;36
44;79;63;32
64;79;30;40
70;79;32;48
56;79;32;32
64;63;20;56
70;63;24;48
66;79;34;40
64;79;43;48
48;79;63;32
48;79;55;32
48;79;63;36
70;79;32;44
56;79;79;36
52;85;63;36
32;64;87;46
48;84;79;48
52;84;79;40
64;95;71;40
48;72;95;63
48;80;95;48
52;84;87;40
64;95;63;52
87;79;40;72
95;52;48;68
95;53;48;79
79;36;64;86
63;36;68;87
32;52;78;71
32;64;79;55
48;76;79;32
64;85;63;32
52;79;63;32
40;76;63;32
40;78;45;32
56;63;20;40
66;63;20;52
75;55;32;64
63;20;40;52
75;55;32;56
79;39;36;52
77;55;32;64
79;32;40;48
79;47;36;66
79;32;52;56
87;47;40;70
79;32;64;87
63;40;68;87
40;64;87;51
36;64;91;63
48;76;95;44
48;76;87;40
64;95;63;48
64;95;77;48
68;95;48;48
72;87;44;64
95;63;40;68
87;40;52;82
63;36;64;86
47;52;78;63
32;68;87;47
32;52;76;63
32;64;79;55
32;64;79;39
32;64;79;32
32;68;63;32
40;75;47;36
75;47;32;64
63;24;52;79
47;32;64;63
32;48;71;47
32;56;79;47
40;64;63;32
48;79;45;32
70;63;32;56
76;63;32;64
79;47;48;64
79;32;48;76
63;32;64;76
59;40;68;79
36;64;87;55
40;72;87;53
40;68;91;47
64;84;95;40
64;91;79;44
48;76;95;51
64;86;95;46
44;80;95;44
52;84;95;40
48;88;95;40
64;95;63;52
84;79;40;52
85;79;36;64
82;79;36;52
68;79;32;48
76;63;32;64
79;47;36;64
71;63;24;52
78;55;32;48
79;55;24;48
71;47;24;48
79;39;32;52
79;20;32;52
63;20;32;70
55;32;56;79
26;40;64;63
32;64;79;47
37;48;76;63
32;64;79;32
36;72;79;32
48;76;79;32
40;74;79;39
32;66;79;32
48;86;55;44
64;87;63;40
48;85;79;40
64;95;44;48
64;93;79;40
64;87;87;40
64;87;87;40
64;92;87;48
72;95;63;64
87;79;48;68
90;79;40;64
87;36;48;72
79;32;64;86
63;40;68;87
46;48;72;79
32;64;87;36
32;52;79;63
32;64;78;63
32;48;74;63
32;52;71;79
47;36;64;63
24;52;79;34
32;64;63;24
16;48;79;39
20;48;71;45
32;66;63;20
32;64;79;24
40;79;47;52
79;47;36;72
79;32;64;76
63;32;64;79
32;64;79;55
32;68;79;32
48;78;79;32
44;82;79;32
64;87;63;40
68;95;44;52
76;79;40;64
76;87;40;68
95;46;64;76
79;36;64;87
79;40;64;78
79;40;64;87
63;52;76;87
36;64;91;63
48;74;95;40
32;64;87;63
32;64;85;63
32;64;87;45
32;64;87;39
32;64;79;32
40;75;79;36
40;72;79;24
32;71;63;32
48;79;39;36
56;79;30;32
48;79;47;32
48;79;34;40
48;79;39;32
60;79;36;32
48;79;47;32
48;79;55;32
52;79;63;32
72;79;32;52
64;79;43;48
79;63;36;76
79;36;64;91
63;48;72;95
40;64;93;63
40;74;95;47
40;64;87;79
44;68;93;59
48;80;95;48
48;84;95;63
52;84;95;48
64;78;95;71
40;68;95;63
40;72;95;63
48;72;95;51
52;90;79;40
48;76;79;32
48;79;79;32
36;68;79;43
40;70;79;32
32;64;79;36
32;64;79;36
24;48;79;55
32;64;79;33
32;64;71;63
24;48;79;47
24;56;79;39
32;68;63;20
32;64;79;28
52;79;32;40
56;79;45;40
64;79;32;40
48;79;55;36
68;79;36;40
64;87;61;40
64;87;36;52
56;87;63;40
64;91;63;40
64;86;79;40
64;86;79;44
48;78;95;40
64;94;79;64
68;95;63;64
82;87;48;80
95;50;64;94
63;48;76;95
40;64;84;87
47;64;74;79
44;52;72;95
47;48;79;79
36;64;86;63
36;70;87;47
36;64;87;55
32;64;79;38
32;64;79;36
32;70;63;34
32;64;79;47
32;64;79;39
32;64;79;22
40;70;63;26
32;64;79;26
32;66;63;32
48;79;47;32
64;79;36;36
68;79;32;52
87;55;40;64
79;44;48;72
79;42;40;64
79;34;48;79
63;36;68;87
47;48;76;79
36;64;95;40
64;95;63;48
90;79;48;64
95;87;40;72
95;63;64;64
82;87;44;68
86;79;44;64
84;79;40;64
78;71;40;64
87;55;44;72
79;32;48;68
63;32;64;79
32;52;79;63
32;48;72;63
43;36;64;79
47;36;64;79
47;32;56;79
47;36;64;63
32;40;60;68
63;20;40;66
63;20;44;68
47;20;48;79
37;32;58;63
20;48;68;55
20;54;79;20
48;79;47;32
56;79;47;24
32;64;79;32
40;76;63;32
32;68;79;39
48;84;63;36
36;72;79;32
44;86;79;32
40;78;79;36
48;79;79;32
40;76;95;40
48;74;95;45
44;72;95;42
64;92;79;40
48;78;95;55
40;80;87;51
48;80;95;42
48;78;95;46
40;74;95;47
48;78;79;34
40;68;87;46
36;68;79;32
32;68;79;32
32;64;79;32
24;48;78;55
32;48;71;63
32;40;68;63
32;64;79;47
28;40;70;63
32;40;64;79
28;40;64;63
24;52;71;63
24;52;70;63
32;64;79;46
36;70;79;32
36;68;79;32
32;68;79;34
56;87;55;40
64;87;47;48
76;79;36;48
72;87;32;64
87;71;40;64
85;71;40;68
78;95;40;52
68;95;63;40
68;95;55;48
86;79;40;68
93;79;48;64
95;53;52;87
79;40;68;95
55;48;76;95
44;64;87;63
36;64;84;71
32;64;82;79
36;64;84;63
36;68;87;38
36;66;87;39
40;76;63;32
48;79;63;32
48;77;63;24
32;64;79;36
32;70;63;20
32;64;63;24
32;54;79;39
20;48;75;39
32;68;63;39
24;52;79;32
32;70;63;32
40;70;79;32
40;78;63;32
44;74;79;32
40;70;79;63
32;64;85;63
36;70;95;36
40;76;95;50
40;76;87;59
40;72;90;79
40;68;92;79
40;64;86;87
44;72;95;79
48;68;84;95
48;68;90;79
40;72;93;71
40;72;95;63
40;72;95;55
36;72;95;40
40;76;79;32
48;78;63;32
40;76;79;32
36;64;79;55
32;56;78;63
32;64;79;39
32;64;79;34
48;79;34;48
48;79;47;36
64;79;24;40
71;55;32;56
79;28;40;72
63;32;64;79
38;48;70;63
34;44;64;79
32;48;64;79
63;32;52;86
55;40;68;87
36;64;87;47
32;76;87;51
36;64;82;79
40;68;95;54
36;64;87;63
40;72;95;63
46;64;86;87
51;64;89;87
44;72;95;71
48;76;95;55
48;82;95;44
64;86;79;54
48;80;95;44
64;89;79;36
48;80;87;36
48;79;79;36
36;68;87;36
36;68;79;32
32;68;79;36
32;66;79;32
52;79;47;32
52;79;43;32
48;78;55;32
58;79;28;32
56;79;29;40
48;79;47;32
48;79;47;32
56;79;32;32
56;79;32;44
56;79;36;32
56;79;47;32
64;79;39;32
74;79;32;48
66;79;32;40
68;79;32;64
79;63;40;68
87;63;40;72
87;36;48;76
79;36;68;95
53;48;76;71
44;64;84;95
40;64;86;71
40;68;94;79
40;68;84;87
63;52;84;95
48;72;95;71
44;64;87;79
40;68;86;71
47;52;76;79
40;64;78;95
42;64;84;79
36;68;87;55
36;64;79;63
32;52;76;63
32;64;87;55
32;64;78;63
32;56;87;45
32;64;79;43
32;68;63;24
48;79;47;20
32;66;79;20
36;68;63;20
32;64;79;36
32;64;63;32
32;74;55;32
52;79;47;32
48;75;63;32
44;79;63;32
36;64;87;43
40;72;87;34
32;64;87;63
36;68;87;36
40;79;79;36
48;85;79;36
48;78;87;36
44;76;95;47
36;64;95;55
40;76;95;47
40;64;91;63
36;64;87;59
40;70;95;47
40;74;87;47
36;68;91;55
32;64;86;63
36;64;79;63
32;64;87;63
36;64;84;63
32;64;86;63
32;56;79;63
32;64;79;32
32;64;79;39
32;64;79;30
32;66;63;32
40;68;79;36
32;64;79;36
32;64;79;39
32;64;79;32
40;77;63;32
44;79;63;32
48;79;55;36
68;79;32;52
87;55;40;72
79;32;64;87
53;48;78;79
40;68;95;42
64;95;55;64
92;79;64;86
87;48;72;95
62;64;90;95
44;80;84;95
52;68;94;87
48;72;94;63
48;76;95;53
48;72;95;63
40;68;95;55
40;68;93;47
40;70;87;46
40;72;87;47
32;64;85;55
32;66;79;46
44;76;79;32
64;79;42;48
79;63;32;64
79;32;52;87
38;40;72;63
32;52;79;45
36;64;63;24
52;79;39;36
66;63;32;52
79;34;48;40
68;55;32;68
31;44;68;55
32;64;79;32
48;79;63;32
32;64;79;47
32;52;79;63
47;48;76;79
36;68;87;79
40;76;95;50
48;86;79;48
76;95;50;64
92;79;48;76
95;44;64;95
56;64;87;79
52;80;95;48
64;95;63;48
76;95;40;68
95;47;64;82
79;40;64;91
53;48;48;72
71;32;64;87
45;40;68;79
32;52;78;63
32;64;79;24
32;64;79;34
32;64;79;63
32;48;75;63
32;64;76;63
41;48;68;79
32;40;68;79
32;56;79;39
40;76;55;40
68;79;32;52
79;47;40;70
79;32;64;87
47;48;70;79
32;64;87;43
48;72;79;32
64;87;63;40
76;87;71;44
68;95;47;64
76;95;44;64
95;59;64;84
95;48;72;95
87;48;76;95
79;48;68;95
77;48;76;95
63;64;82;95
48;68;95;79
48;72;95;61
64;80;95;40
64;87;79;40
72;95;44;64
87;79;40;64
87;59;40;64
87;32;64;79
55;40;70;79
32;56;79;39
40;68;79;32
44;60;64;63
24;48;64;63
31;44;75;63
20;52;78;47
24;56;79;39
20;52;79;47
32;64;79;24
32;66;79;24
40;74;63;32
40;76;63;32
48;79;55;32
68;79;32;52
79;47;40;70
63;32;64;79
36;48;78;79
36;64;87;55
40;68;87;40
52;84;87;36
64;95;63;52
84;87;40;68
95;63;44;64
94;71;44;72
95;44;64;72
79;42;64;84
79;40;64;84
55;48;76;79
36;64;82;79
40;64;82;79
36;64;78;79
42;48;72;79
36;52;87;47
40;68;79;39
48;76;63;32
64;79;32;64
79;24;48;77
47;36;64;63
24;52;79;47
32;66;79;20
44;79;47;32
64;63;32;52
79;32;33;40
68;79;32;56
79;63;40;64
79;32;52;83
47;40;64;79
55;40;64;79
34;52;73;79
34;64;83;63
40;79;79;44
48;79;87;40
64;90;79;48
76;95;44;64
72;95;44;44
76;95;40;68
87;79;44;64
95;55;48;68
95;54;48;64
72;87;36;64
83;71;36;64
87;47;48;74
79;36;52;71
79;32;64;79
32;56;78;63
47;40;68;79
45;48;64;79
63;32;64;79
55;40;64;79
47;40;64;79
55;32;64;79
43;40;64;63
32;52;74;63
32;64;79;47
40;64;79;28
48;79;63;32
64;87;32;52
79;63;40;64
79;36;48;79
55;40;68;87
36;48;76;79
32;64;87;55
40;72;95;40
64;93;79;48
74;95;63;64
64;95;55;48
76;95;46;48
76;95;51;64
87;79;46;48
84;87;44;68
95;51;64;76
79;48;72;95
55;64;90;79
48;72;95;54
48;76;95;36
68;95;54;48
78;79;36;64
87;55;48;74
79;32;64;87
44;48;78;63
32;64;79;36
48;79;63;32
64;79;87;38
32;64;79;39
48;75;63;24
64;79;32;52
79;37;36;48
79;28;40;75
63;32;48;76
63;32;64;79
47;36;74;63
32;52;76;63
32;56;87;63
40;70;87;38
52;79;79;36
64;95;63;48
68;95;44;52
87;63;48;84
79;40;72;95
59;48;80;87
40;68;95;55
64;87;95;40
72;92;95;63
44;76;95;59
48;80;95;44
44;76;95;40
40;72;91;51
36;64;87;59
40;76;95;32
49;40;64;87
36;48;78;63
43;48;68;79
32;56;79;55
40;74;79;32
52;79;63;32
56;79;63;32
56;79;55;36
66;63;32;48
79;47;32;64
79;24;52;79
32;40;70;63
24;48;70;63
32;52;64;79
32;64;79;39
32;64;79;38
32;64;86;47
36;68;79;55
32;68;87;53
40;76;87;32
48;83;79;36
64;93;63;40
64;95;47;64
91;79;48;72
95;46;68;95
60;64;92;79
64;88;95;48
76;95;63;64
95;79;52;80
95;48;68;95
71;48;72;95
44;64;95;63
48;76;95;40
48;76;74;79
36;64;79;63
32;64;87;47
32;64;87;32
40;66;79;47
32;64;79;55
32;68;79;38
36;68;63;24
48;79;47;32
40;71;63;32
32;66;63;20
44;71;63;32
64;79;26;44
68;63;32;64
63;32;64;79
36;52;79;63
40;68;79;38
48;79;79;36
64;95;47;48
84;79;40;72
87;36;32;64
87;63;48;80
79;40;64;87
63;48;76;95
55;64;84;95
79;48;76;95
79;48;76;95
44;68;95;79
52;64;82;95
44;76;95;53
52;80;95;44
64;95;59;48
86;79;40;64
93;55;64;80
79;40;68;95
46;52;82;79
36;64;87;55
44;70;79;32
48;87;55;40
74;79;32;64
79;47;39;40
69;63;32;52
75;63;32;48
79;55;32;56
79;36;36;56
79;32;40;70
63;32;52;79
55;32;64;79
43;48;66;79
63;36;64;87
59;48;78;79
36;64;87;63
40;64;95;47
64;84;95;40
64;86;79;44
72;95;71;48
76;95;55;64
88;95;48;72
95;61;64;88
95;48;76;95
48;64;64;92
79;48;72;95
44;64;90;63
53;64;82;87
53;64;84;79
63;48;72;95
44;64;78;79
63;48;76;79
36;68;95;53
32;64;87;55
36;72;79;32
52;76;63;32
64;79;47;32
64;79;28;44
78;55;32;64
79;32;48;79
39;40;68;63
32;52;74;55
32;64;79;24
48;66;79;32
48;77;79;55
32;66;87;38
36;74;63;32
40;76;63;32
56;79;47;32
79;63;40;64
87;38;48;72
79;32;64;87
63;48;68;95
63;48;72;95
63;64;94;63
40;76;95;75
44;76;95;79
59;64;88;95
55;64;92;95
63;64;80;95
71;64;76;95
75;64;80;95
71;64;84;87
62;64;76;95
55;64;84;79
44;64;82;79
36;68;87;63
45;64;76;79
36;64;76;79
63;40;64;87
55;40;68;79
43;44;70;79
32;48;72;63
26;48;68;63
32;58;79;26
32;64;79;30
32;64;79;63
39;48;68;79
63;32;52;76
63;36;64;87
55;48;72;87
63;40;68;87
47;52;78;79
61;48;74;95
63;52;78;71
53;52;76;95
48;64;90;63
48;84;95;44
52;82;95;63
48;80;95;59
48;86;95;46
48;72;95;55
48;84;95;44
48;80;95;44
52;84;87;40
40;74;95;53
44;80;79;40
40;78;87;38
44;78;79;32
36;72;79;32
40;76;63;32
48;79;63;32
52;79;55;20
32;64;79;24
36;68;63;22
32;66;63;24
32;71;47;20
48;71;39;32
52;63;20;32
63;63;20;52
71;35;32;52
63;24;40;73
55;32;48;79
36;40;75;55
32;64;79;63
36;68;87;42
40;78;79;32
44;74;87;36
48;78;87;34
40;74;79;36
64;87;45;36
70;87;38;64
95;55;48;76
95;59;52;82
95;44;48;68
95;63;48;80
95;44;64;84
79;44;64;91
63;48;64;87
79;40;64;87
63;48;64;79
43;64;79;63
36;66;87;46
32;68;79;32
48;79;55;40
68;63;32;56
79;55;32;48
76;63;32;64
79;33;40;68
63;24;52;77
63;32;64;79
55;32;64;79
47;36;64;79
24;56;79;35
32;64;79;32
32;68;79;32
44;78;63;32
48;79;63;32
64;87;55;32
64;87;38;52
76;79;32;64
87;55;48;72
95;44;64;68
87;40;64;90
79;48;72;95
79;48;72;95
54;64;80;95
87;48;76;103
69;64;84;95
63;64;80;95
71;64;72;95
79;48;72;95
48;64;80;79
36;64;91;79
36;70;95;79
63;48;72;95
63;48;68;87
63;44;72;87
46;52;78;87
71;48;68;87
63;40;64;79
63;32;64;79
79;32;64;79
79;32;64;79
55;48;68;79
32;40;68;79
33;48;76;63
44;48;76;63
36;56;79;63
39;64;79;63
32;70;79;36
36;68;87;36
40;72;87;47
32;64;85;71
36;64;85;79
47;64;82;95
46;64;93;95
87;48;72;95
95;64;80;103
48;72;101;87
48;76;111;69
48;76;103;71
48;68;95;95
54;68;94;79
48;72;103;63
48;76;95;63
64;95;63;48
84;95;44;64
82;87;40;52
91;79;36;64
79;32;64;83
63;36;64;87
63;32;52;76
63;32;64;79
63;36;64;79
55;32;64;79
47;40;64;79
55;36;56;79
63;32;56;79
63;40;64;87
55;40;64;79
55;40;72;79
32;64;87;40
40;70;87;36
36;74;79;36
52;78;79;36
52;87;63;32
40;79;79;36
64;95;63;40
52;84;79;36
48;78;79;40
52;79;79;36
40;70;87;63
40;64;95;54
48;86;79;36
48;82;95;40
48;86;79;44
40;76;95;40
64;87;63;36
64;93;55;44
72;79;32;40
70;79;32;48
68;79;36;32
70;63;24;52
79;47;32;48
79;37;40;71
55;32;52;63
35;48;64;63
24;48;66;39
16;56;63;22
24;64;63;20
32;56;63;22
36;60;63;22
32;58;63;20
32;52;71;37
20;52;76;55
35;48;72;47
32;64;79;32
48;79;63;32
48;79;63;36
64;87;63;36
52;79;71;40
64;87;55;48
64;95;50;52
87;79;36;64
95;55;64;88
87;40;64;90
79;48;64;94
79;48;68;95
63;64;76;95
49;64;84;63
40;64;80;79
40;64;84;79
36;64;82;71
36;64;79;95
79;40;72;95
59;52;78;87
55;52;72;87
47;56;87;39
32;64;79;38
40;70;79;26
40;78;63;32
48;75;63;28
32;64;79;32
32;68;63;24
48;79;24;44
66;63;32;32
70;63;32;56
79;55;32;40
78;63;32;56
79;47;32;79
63;36;64;87
55;52;76;79
42;64;86;79
63;52;74;87
79;48;68;95
59;64;82;95
79;48;68;95
63;64;88;95
63;64;88;95
63;64;92;111
95;64;84;111
79;72;88;111
95;64;80;111
87;64;84;103
79;64;92;95
48;80;95;79
52;68;92;79
44;72;95;79
44;64;87;79
40;68;95;63
36;72;87;55
40;72;87;59
32;64;86;47
36;76;63;32
48;79;55;32
56;79;31;44
71;63;24;48
71;47;32;40
75;63;32;48
79;47;36;71
79;45;32;64
79;32;40;64
79;38;44;70
79;32;48;64
79;32;52;79
79;32;64;87
63;40;64;86
79;36;64;84
79;40;64;82
79;36;64;91
55;64;76;95
44;64;91;63
40;68;84;79
40;76;95;58
48;78;95;48
64;87;79;40
48;87;79;40
64;95;36;48
87;63;40;68
87;44;48;84
87;44;48;76
79;36;64;79
42;52;72;79
32;52;79;63
32;64;79;35
40;70;79;47
32;52;79;55
32;56;79;63
32;56;79;47
32;64;79;35
32;64;79;35
32;68;79;28
32;64;79;24
40;79;55;32
64;79;33;40
70;79;32;48
79;55;40;70
79;32;52;79
79;32;64;87
63;48;78;87
63;48;70;95
55;64;84;59
48;78;95;48
64;93;79;40
68;95;79;48
72;95;55;64
91;79;48;72
95;48;68;95
79;48;72;95
79;52;72;95
95;48;72;95
79;52;76;95
87;44;68;90
79;48;76;95
87;44;68;95
63;48;72;95
41;64;84;71
36;64;87;63
32;64;86;63
36;74;79;55
32;64;87;55
32;68;79;35
32;64;79;47
32;68;63;24
48;78;43;32
74;63;32;64
79;39;32;64
79;32;40;64
79;32;52;79
63;40;64;79
36;52;74;63
32;64;86;55
32;64;85;71
32;68;91;47
36;72;95;44
52;87;71;32
64;87;71;48
68;95;55;48
64;84;79;48
64;95;63;48
87;87;40;68
95;63;48;76
95;49;64;78
87;40;64;82
63;40;64;87
63;48;68;87
36;56;84;55
32;66;87;40
40;70;79;32
48;79;63;32
48;78;63;36
52;79;39;40
52;79;32;48
70;63;24;40
79;47;32;66
63;24;48;70
63;24;48;78
47;32;56;79
37;40;64;79
33;40;72;71
47;36;64;79
63;40;64;87
63;40;64;87
43;64;86;79
32;68;87;63
36;64;86;79
71;48;72;95
71;48;76;95
54;64;76;95
50;64;90;95
63;64;84;95
48;80;103;70
52;68;84;95
63;64;84;95
62;64;86;95
52;64;92;79
48;68;95;63
44;80;87;40
48;80;87;40
52;87;63;32
64;87;47;48
76;71;32;52
87;55;40;68
79;32;64;79
43;40;64;79
24;56;79;39
32;52;79;33
32;64;63;20
48;79;34;32
56;79;43;32
48;79;31;44
70;63;24;48
75;63;32;64
79;38;40;64
79;32;48;78
63;36;64;79
47;48;76;79
34;64;87;71
32;64;87;63
36;72;87;40
40;80;79;36
48;82;79;32
40;78;87;36
64;91;59;40
64;86;79;40
64;87;87;40
72;95;71;52
68;95;75;48
80;95;44;64
87;79;48;74
95;53;48;85
63;52;78;91
79;40;68;95
53;64;90;71
36;64;87;63
36;64;87;63
42;48;70;87
39;48;70;79
79;32;64;79
79;32;52;78
79;32;48;70
63;32;48;76
47;32;64;63
35;36;64;63
47;36;64;79
26;56;75;63
32;48;77;79
32;56;79;79
32;68;87;38
48;76;79;32
48;83;63;36
66;95;42;36
48;76;87;38
40;76;87;36
56;80;79;36
64;86;79;40
64;95;46;64
95;71;48;72
95;48;64;91
87;40;64;95
79;52;76;95
63;64;80;95
79;64;76;95
71;64;84;95
71;64;84;95
59;64;95;79
40;80;95;53
48;82;79;40
44;76;87;36
52;84;63;32
56;79;63;32
64;79;32;40
79;63;32;64
79;32;40;64
63;24;40;71
63;26;40;64
79;24;36;68
63;32;52;69
63;24;40;76
63;32;56;60
79;24;48;79
79;32;48;70
79;32;52;79
63;32;48;76
79;36;52;85
55;48;76;79
61;48;76;87
44;48;68;87
87;40;64;90
87;40;64;76
95;44;64;95
71;52;68;90
87;40;64;90
79;48;64;95
87;48;76;95
79;52;68;95
87;48;72;95
63;64;80;95
79;44;72;95
51;64;76;95
79;40;64;93
63;44;68;87
63;48;70;87
59;48;64;79
59;44;68;87
63;48;72;87
79;32;52;76
79;32;64;79
79;32;56;79
63;32;64;79
71;32;56;87
43;52;72;79
63;36;64;87
47;48;79;55
32;64;87;55
32;64;85;79
44;64;91;63
40;76;95;55
40;76;87;36
64;91;79;36
64;95;63;64
95;79;48;72
95;79;48;72
95;53;64;80
95;48;64;90
95;48;76;95
67;64;86;95
48;76;95;87
57;72;95;79
48;72;94;71
48;80;95;44
64;90;79;40
68;95;63;48
78;95;40;48
84;79;36;64
91;63;40;64
87;44;48;74
87;44;40;71
87;45;40;70
63;32;52;76
63;32;52;79
34;48;74;63
39;44;70;63
32;64;79;47
32;64;79;38
32;70;79;45
40;76;79;32
48;79;63;32
68;79;36;48
87;55;40;68
87;32;52;79
87;36;52;79
87;47;48;74
91;44;52;84
79;40;64;93
71;48;72;87
95;44;64;82
95;44;64;90
95;48;64;92
95;48;68;90
95;48;64;86
95;44;64;90
95;44;64;87
79;48;64;95
79;40;64;94
63;48;76;95
79;48;72;95
59;64;80;95
63;64;84;87
40;64;87;71
40;64;87;63
36;64;86;79
47;48;76;79
34;64;87;71
42;52;72;79
32;64;74;79
63;36;64;79
63;40;68;79
47;48;78;63
32;64;87;71
39;64;87;45
40;74;87;47
44;78;79;32
48;76;63;36
40;76;79;32
64;87;47;40
79;79;32;64
91;53;44;72
95;51;52;82
79;40;64;87
79;48;68;95
71;48;76;95
46;64;90;79
40;72;95;55
40;80;95;44
64;95;63;36
80;95;44;64
87;79;40;64
95;47;48;78
79;36;68;79
63;40;64;87
47;40;64;79
32;64;78;63
32;64;87;43
32;64;79;43
32;64;79;79
32;64;87;42
32;64;79;47
32;64;79;43
32;66;79;47
32;52;79;39
32;48;76;47
32;56;79;28
40;72;79;32
52;79;55;32
64;79;36;40
79;63;32;64
87;47;40;68
79;40;40;72
87;44;48;72
87;55;40;76
95;44;64;84
95;40;64;93
79;44;72;95
55;64;80;95
44;72;95;55
64;92;87;40
68;95;79;48
78;95;48;64
95;63;52;84
87;40;68;95
55;64;84;79
40;72;91;55
52;74;87;95
40;64;84;79
48;68;95;47
48;78;79;36
64;87;55;32
40;70;79;32
56;79;63;32
32;64;79;30
48;78;63;24
64;79;38;48
79;34;40;68
79;32;52;79
43;40;68;63
32;64;79;37
48;74;79;32
64;87;36;48
74;79;32;56
86;55;40;68
79;32;64;87
53;48;72;87
36;52;68;87
63;48;68;87
44;64;78;95
79;48;64;95
79;48;76;95
87;48;72;95
71;64;82;95
95;48;68;95
95;52;72;95
95;48;64;84
79;48;72;95
61;64;76;95
47;64;87;79
50;64;86;79
40;76;87;63
48;68;95;53
40;68;91;63
40;76;79;32
48;76;63;20
64;87;34;48
79;63;32;64
79;39;36;64
79;39;32;60
79;32;36;64
63;22;40;79
63;24;48;78
47;32;56;75
79;24;48;77
47;44;74;63
32;48;70;79
32;64;87;63
32;64;87;63
44;72;79;55
52;84;79;40
64;93;71;40
76;95;47;64
95;55;64;72
95;63;52;82
95;48;64;72
95;79;48;72
95;71;48;76
95;48;52;80
87;40;64;95
87;40;64;95
63;64;78;95
63;64;84;79
40;64;94;87
71;48;76;95
40;64;95;79
44;64;84;79
40;64;86;79
55;48;72;87
40;64;84;87
71;40;64;87
63;40;68;79
32;48;76;63
32;52;87;47
32;68;79;28
44;76;63;24
48;79;55;32
64;79;38;32
64;79;32;52
76;71;32;48
79;63;32;56
79;63;32;52
87;63;36;64
91;59;40;64
87;63;40;64
87;47;52;76
95;54;52;80
87;44;64;87
95;44;64;95
95;48;64;88
95;52;64;86
95;63;64;84
95;55;64;84
95;52;64;80
95;52;64;80
95;44;64;81
87;40;64;90
63;44;64;68
79;44;48;74
87;44;40;64
77;63;32;64
79;55;32;54
72;63;32;64
79;39;48;64
79;45;36;64
79;39;32;56
79;47;32;52
79;31;40;64
79;32;36;68
63;32;52;75
63;32;48;79
79;63;36;52
79;63;36;64
87;44;48;64
79;32;52;79
79;32;64;83
87;63;40;70
91;63;40;82
79;40;68;95
40;64;94;79
48;80;95;44
72;95;87;64
72;95;79;64
86;95;60;44
82;103;55;64
80;95;48;68
95;71;48;76
95;53;52;68
68;87;40;64
87;63;36;52
79;79;32;64
63;40;76;45
48;79;63;36
40;66;79;32
32;56;79;28
32;56;79;55
32;48;75;63
32;48;79;63
32;56;79;45
32;56;79;47
32;64;79;32
32;64;79;35
40;68;63;32
48;79;63;20
52;79;55;40
64;79;32;64
63;32;64;87
63;40;64;78
79;36;52;83
63;48;74;87
38;64;84;63
36;76;95;44
64;94;63;48
80;95;46;64
93;79;64;84
95;48;72;95
52;64;94;79
48;72;95;63
64;80;95;61
64;95;79;48
76;95;48;68
95;63;48;64
94;63;48;72
93;63;40;64
95;42;48;78
93;55;36;52
79;79;32;64
84;63;32;52
64;79;32;40
66;79;42;32
64;79;36;40
68;63;24;48
79;47;36;64
71;32;56;79
28;44;74;63
32;56;79;28
48;78;55;36
64;79;24;48
79;55;40;70
71;32;64;87
32;52;70;79
32;64;87;87
36;64;78;79
40;72;95;47
64;95;63;48
64;95;38;64
82;87;44;64
76;95;44;64
76;95;55;64
90;79;48;64
95;63;64;84
95;55;64;92
87;48;68;103
55;64;89;79
48;80;95;48
64;93;63;48
68;95;42;64
87;63;48;78
79;36;64;87
55;40;72;79
32;48;74;79
32;64;79;79
32;64;87;39
32;64;79;63
32;48;68;79
47;36;66;79
63;32;64;79
43;48;70;87
32;48;70;79
36;48;79;63
34;48;76;63
39;48;72;87
63;36;64;87
55;48;79;87
79;48;68;95
59;64;86;95
71;64;80;95
71;64;88;87
63;64;80;95
55;64;95;95
55;68;95;87
48;76;103;61
64;94;95;48
80;103;79;64
95;87;64;84
95;79;64;88
95;58;64;92
79;64;92;95
70;64;80;95
71;64;84;95
79;48;76;95
71;48;84;95
54;64;80;87
44;64;87;95
63;64;80;95
42;64;95;79
40;64;95;55
48;74;95;79
40;64;86;63
32;68;87;47
40;68;87;38
44;72;79;32
56;87;45;48
70;79;38;32
64;79;32;56
79;71;32;32
64;79;47;48
72;79;32;64
83;79;36;64
82;79;40;48
76;79;40;64
87;79;40;68
95;40;64;87
63;48;72;95
44;64;87;79
48;64;95;71
52;76;95;40
72;95;63;48
76;95;48;64
91;79;40;68
95;63;52;74
95;42;64;78
79;40;68;95
63;48;76;95
79;48;68;91
79;44;68;93
95;40;64;86
79;40;68;95
79;40;64;87
63;40;72;87
79;36;64;85
63;40;72;79
32;64;79;47
48;72;79;32
64;79;39;48
74;63;32;52
79;63;32;64
79;32;52;79
63;36;56;79
43;40;68;79
32;52;72;63
32;64;79;63
36;48;76;79
32;64;87;41
64;91;63;40
70;95;46;48
84;79;40;68
87;40;64;87
95;54;64;84
87;44;68;82
95;59;48;80
95;54;64;92
79;48;76;95
46;64;91;79
48;76;95;47
64;90;71;40
68;95;40;64
87;63;48;74
79;36;64;82
63;36;64;87
32;52;78;63
32;64;79;79
32;56;79;55
32;52;79;55
32;52;77;63
32;64;79;47
40;70;79;32
44;79;63;32
48;79;63;36
56;79;55;32
64;79;32;48
79;63;32;64
79;34;40;72
63;32;64;79
34;48;68;79
36;48;79;63
32;64;87;59
40;72;79;36
64;87;55;48
78;79;36;64
95;40;64;86
63;40;40;68
95;55;48;78
87;40;68;95
95;44;64;93
79;40;64;90
95;46;64;86
95;44;64;86
95;63;48;80
95;44;64;87
79;44;64;91
55;48;76;79
36;64;87;51
40;70;79;32
64;87;36;48
79;63;32;52
79;43;48;70
63;32;64;79
32;64;79;39
40;74;63;32
52;79;38;36
68;79;28;20
48;79;46;36
78;55;32;64
79;32;44;70
63;32;56;79
63;32;64;87
45;48;79;79
40;72;87;47
48;76;87;32
64;95;53;48
80;87;36;64
95;59;48;86
79;40;64;95
63;48;72;95
42;64;95;71
48;78;95;48
68;95;63;48
84;95;48;68
95;52;64;95
63;64;84;95
40;72;95;95
48;64;84;95
46;64;90;95
63;64;80;95
51;64;84;95
87;44;64;93
79;40;72;95
61;52;72;87
63;48;76;95
79;48;68;95
63;40;70;87
36;52;79;63
36;64;79;38
48;68;79;32
52;79;63;32
64;79;32;52
79;55;36;64
79;32;48;73
63;36;68;79
32;64;79;63
36;64;87;87
36;64;82;63
42;64;95;79
44;64;90;71
44;64;94;79
48;72;95;63
48;76;95;55
64;80;95;52
64;88;95;71
64;92;95;48
68;94;79;52
86;95;52;64
86;95;44;72
95;55;64;82
95;48;68;94
63;48;72;95
44;64;86;79
40;64;87;61
40;68;87;38
52;86;55;32
64;87;47;32
52;79;39;44
70;79;32;44
79;55;32;56
79;43;32;64
79;39;32;64
79;38;48;71
79;32;44;70
79;32;48;71
87;55;36;64
79;32;48;68
63;32;56;79
47;40;74;79
36;64;87;44
52;79;79;36
64;87;38;52
84;63;36;68
87;44;64;84
79;40;68;95
54;64;80;95
40;52;84;93
63;48;76;95
46;68;95;71
46;64;95;79
64;87;95;52
64;94;79;52
76;95;55;48
78;95;51;48
76;95;59;44
78;87;40;64
79;79;36;68
87;38;48;74
79;32;64;87
36;48;68;79
32;56;78;63
32;64;79;34
48;74;63;32
64;79;28;48
79;63;32;64
79;32;48;75
55;32;56;64
63;32;48;75
63;32;56;79
79;32;40;68
71;32;48;74
87;42;40;68
87;40;48;79
87;36;48;82
79;36;64;84
95;45;48;76
87;36;64;87
95;48;52;84
87;40;68;95
63;64;86;79
44;64;94;95
79;52;80;103
61;68;90;95
95;64;80;103
87;64;84;103
95;64;72;95
95;52;80;95
59;68;94;79
48;72;95;95
55;64;86;87
48;64;94;79
61;52;84;87
63;48;76;95
87;40;64;94
79;48;76;95
63;48;70;95
79;40;64;87
95;38;48;78
87;46;40;68
79;55;36;64
87;39;40;71
79;47;32;64
79;36;40;70
79;47;40;70
79;47;32;64
72;79;39;48
72;79;32;64
85;63;32;68
87;54;48;76
87;63;40;68
95;47;64;90
95;48;64;93
79;48;76;95
95;48;64;88
95;48;68;92
95;61;64;92
95;48;72;95
95;56;64;88
95;48;72;103
71;64;88;95
55;68;88;95
71;64;72;95
71;52;76;95
63;64;80;95
44;64;87;95
51;64;87;71
40;76;87;36
64;87;63;40
68;87;55;40
78;79;36;48
72;63;32;40
64;79;24;48
66;63;32;48
79;47;32;64
79;63;32;48
74;63;24;64
79;47;32;64
79;63;32;64
76;63;32;44
76;63;32;56
79;63;40;68
87;63;40;64
91;51;48;64
79;79;40;64
79;79;36;52
78;87;47;52
76;95;53;64
90;87;40;68
94;79;48;76
95;63;48;80
95;55;64;92
95;42;64;84
95;63;64;95
95;48;64;90
87;48;76;95
63;64;93;71
44;64;95;79
52;86;95;40
64;84;95;46
64;95;63;48
74;95;40;64
87;63;40;68
87;36;48;76
79;39;40;68
79;36;40;70
79;38;32;64
63;32;52;79
47;40;64;79
47;48;79;59
36;68;79;32
56;87;55;44
79;79;36;64
85;63;36;64
79;79;36;64
91;55;48;87
55;48;78;87
40;64;94;87
44;64;84;95
40;72;95;95
64;82;95;48
64;95;95;52
76;107;71;64
80;103;79;48
80;111;71;64
80;95;48;64
86;95;54;64
80;95;46;64
84;79;40;64
95;47;64;84
95;46;64;84
95;40;64;82
95;63;40;68
79;36;64;79
87;36;48;74
79;32;64;87
79;36;64;87
55;40;72;79
55;48;70;79
36;48;78;79
39;40;72;79
63;36;64;87
79;32;64;87
63;48;76;79
53;48;72;87
36;64;86;79
40;64;91;53
48;76;95;42
64;84;95;40
64;84;95;87
53;64;94;79
64;90;95;71
48;76;95;61
64;94;95;56
68;88;95;48
64;95;87;48
74;103;79;52
84;95;58;48
80;103;63;64
84;95;48;68
86;87;44;68
89;79;40;64
86;79;40;64
76;79;47;48
72;79;36;48
74;79;38;36
66;79;32;52
74;63;32;48
71;63;32;52
78;63;32;52
76;63;24;48
68;63;24;40
71;63;24;56
75;47;36;64
79;37;40;68
79;24;52;71
79;32;32;68
79;32;52;76
79;39;40;70
79;32;64;87
79;36;64;82
79;40;64;87
87;42;48;78
87;36;64;84
95;50;48;68
95;47;64;84
95;52;48;82
95;44;64;95
95;48;64;95
95;48;68;95
79;48;72;95
71;48;76;95
59;64;88;95
51;64;88;95
52;64;94;71
48;78;95;54
64;90;79;44
72;95;55;40
72;87;44;52
79;79;38;40
68;87;40;48
72;79;32;56
68;79;32;48
73;79;32;40
66;63;24;48
79;55;32;64
79;39;32;64
79;28;36;58
79;39;32;56
79;24;40;68
79;34;36;64
63;32;64;87
39;48;72;63
32;56;87;63
32;64;87;55
48;76;79;36
48;80;79;36
64;95;61;48
80;87;40;64
95;54;64;90
63;52;76;95
46;64;86;87
44;72;95;53
64;92;79;48
76;95;52;64
94;79;48;76
95;52;52;76
95;44;64;64
95;55;44;72
95;47;52;76
93;55;48;76
95;40;64;84
95;55;48;76
87;38;64;82
95;46;48;72
87;36;52;68
85;63;32;56
79;36;48;76
55;32;52;79
38;40;64;63
32;48;79;47
32;64;63;24
48;71;47;32
64;79;32;48
79;63;32;64
79;36;48;76
63;32;48;77
47;48;78;87
40;36;64;87
47;48;76;79
40;64;87;42
48;76;87;42
52;78;79;40
64;95;63;40
72;95;53;48
94;79;40;68
90;87;44;72
95;59;64;84
95;48;68;95
71;64;82;95
44;68;95;71
48;78;95;44
64;94;63;48
76;95;40;64
92;79;40;68
87;36;64;87
55;48;78;79
36;64;85;87
36;40;64;79
39;48;70;79
47;32;56;79
47;36;68;79
26;48;74;55
32;56;79;47
32;64;79;28
40;73;79;20
52;79;39;36
64;79;32;48
78;63;32;64
79;32;64;87
55;48;72;87
36;64;79;79
36;64;86;63
40;68;91;55
48;80;71;40
76;95;44;64
95;55;64;82
87;48;64;64
95;63;40;72
93;79;44;72
94;71;48;76
95;63;48;84
95;40;64;87
79;48;74;94
95;44;64;92
79;48;80;95
63;52;80;87
44;64;93;63
48;72;87;40
64;86;71;36
72;87;36;52
87;63;32;64
79;32;48;74
63;32;64;79
34;40;70;63
32;56;79;55
32;64;79;24
52;79;45;20
48;79;55;32
68;79;32;52
64;79;39;40
79;55;32;64
79;63;32;64
87;63;32;72
87;55;48;76
79;40;68;87
71;48;72;95
55;64;89;75
48;72;95;44
64;95;79;48
84;95;44;64
95;63;64;90
79;64;84;95
48;72;95;79
48;80;95;55
64;88;95;40
68;95;59;64
90;79;48;48
84;79;40;64
87;71;36;64
78;79;36;64
76;79;38;48
68;79;32;52
70;79;32;52
70;63;32;52
79;55;32;52
75;63;32;56
71;63;32;64
79;24;48;78
39;40;66;55
32;52;79;24
48;75;63;32
66;79;32;64
79;32;48;78
47;36;64;79
32;52;79;63
32;64;79;32
64;87;63;55
48;87;63;48
78;95;50;64
76;95;40;64
95;63;64;80
95;63;64;86
95;52;64;82
95;55;64;84
95;52;64;101
79;64;76;103
58;64;95;79
64;84;95;48
64;95;71;64
80;95;44;64
94;63;48;76
95;40;64;84
79;44;76;87
36;64;95;38
64;87;63;40
68;87;34;48
78;79;32;36
70;79;34;40
64;79;32;40
64;79;32;52
71;63;32;36
64;63;20;44
79;47;36;56
71;63;24;52
64;63;24;40
52;79;39;32
56;79;47;40
66;63;32;48
79;55;36;64
79;32;48;79
63;32;64;87
32;48;79;63
36;68;87;42
48;74;63;36
64;87;36;64
95;45;48;74
79;40;68;87
63;64;78;95
63;64;84;95
55;64;94;95
48;64;95;79
52;72;95;63
48;84;95;40
68;95;71;48
68;95;63;32
64;93;63;40
64;87;36;64
86;63;40;64
87;46;48;78
63;32;64;79
47;40;64;79
32;48;79;63
32;64;79;32
40;71;55;24
52;79;55;32
64;79;28;40
76;79;63;32
64;79;47;32
64;79;55;32
64;79;43;40
64;79;63;32
52;87;63;40
64;87;55;32
70;87;46;48
81;79;40;48
72;87;47;48
68;87;40;64
87;71;36;64
95;44;64;86
71;48;68;95
46;64;87;87
40;76;95;48
64;90;79;40
72;95;52;64
86;79;48;72
95;44;52;78
87;40;64;80
63;36;68;87
47;48;72;79
79;32;52;87
79;32;64;74
87;38;52;76
87;40;48;70
87;37;40;68
79;32;56;71
79;32;52;79
79;32;52;79
47;36;70;79
32;52;79;39
40;64;63;32
64;79;39;44
76;63;32;56
79;32;52;79
45;40;74;63
32;48;79;63
32;64;79;32
48;68;71;46
48;85;71;36
64;87;79;36
64;87;71;44
72;95;44;64
78;95;50;64
86;79;48;68
95;63;48;72
95;63;64;80
95;52;64;92
95;48;76;95
50;64;84;79
48;68;95;63
64;86;79;40
64;91;63;52
84;79;36;64
94;62;44;70
87;40;48;70
79;32;64;87
53;40;72;79
32;64;79;87
32;52;76;63
32;48;74;63
32;52;79;55
32;64;79;39
40;76;63;32
40;70;79;28
40;71;63;32
48;71;63;55
40;64;79;32
52;79;63;32
56;79;55;36
68;79;32;64
87;46;40;64
87;42;52;79
63;48;68;87
36;64;84;71
40;64;95;63
48;72;95;44
64;84;79;40
68;92;79;63
64;93;87;48
80;95;55;64
72;95;79;64
84;95;44;72
95;79;48;72
95;71;48;64
76;95;48;64
86;87;44;64
93;71;40;68
93;63;48;72
87;38;48;70
79;32;64;87
55;48;72;79
32;56;87;47
40;72;63;32
64;79;37;40
78;55;32;64
79;24;48;79
38;48;75;63
32;56;79;79
45;48;78;63
32;52;79;63
32;64;79;32
64;79;47;40
68;79;32;52
87;55;44;64
87;46;40;76
79;36;64;79
95;36;64;87
87;40;64;76
94;63;48;68
95;71;48;76
95;63;48;76
95;63;64;68
87;79;48;76
91;79;44;64
80;95;46;64
78;95;50;48
80;95;55;64
84;95;48;64
76;95;47;64
80;79;40;64
86;79;40;52
82;79;38;68
95;40;48;74
95;47;48;64
85;63;36;68
79;32;52;70
79;39;40;68
79;33;40;71
63;24;48;74
63;32;52;72
63;24;52;77
79;24;52;64
79;43;36;64
79;32;52;68
79;32;40;72
79;32;52;60
72;79;36;48
79;59;40;56
78;63;36;64
87;55;40;64
85;63;40;68
91;63;48;64
93;63;48;72
95;51;64;78
95;47;64;86
63;64;80;95
79;64;84;95
48;68;95;63
64;88;87;44
76;95;63;64
88;79;40;64
95;63;48;76
87;42;64;87
63;48;76;87
38;64;87;63
48;76;79;32
64;87;42;52
84;63;32;32
52;79;63;32
56;79;32;48
68;63;24;48
75;55;32;48
68;63;20;56
79;32;40;60
79;47;32;52
71;63;32;52
79;47;32;64
79;47;40;68
79;43;32;64
79;47;44;64
79;63;32;64
87;47;48;76
87;59;40;64
87;63;48;64
82;79;40;64
95;59;48;70
87;63;40;64
95;63;52;72
95;71;48;68
95;55;48;84
95;55;64;86
95;40;68;86
95;52;64;86
95;71;64;80
95;48;64;84
95;55;64;84
95;48;64;93
79;40;68;87
71;40;64;95
53;48;72;95
63;48;74;87
40;52;76;79
47;48;68;79
55;48;72;63
32;56;79;47
32;64;79;35
40;68;79;38
40;68;63;39
48;79;63;32
64;79;63;36
48;79;63;40
74;79;32;72
91;36;64;87
63;40;76;91
79;40;68;95
79;48;80;95
71;64;86;95
48;64;88;95
57;64;92;87
48;84;95;71
48;80;103;60
64;88;103;71
64;94;95;52
76;110;71;72
95;95;64;76
103;75;64;80
103;63;64;84
103;54;68;89
95;40;64;93
95;55;64;72
90;71;48;68
95;59;52;76
93;63;40;68
93;46;48;64
64;87;43;48
78;63;40;68
79;38;44;76
79;32;44;64
79;39;32;64
63;32;64;63
24;48;79;36
40;71;55;32
64;79;34;40
72;79;32;64
79;45;36;68
79;32;64;79
47;48;72;79
36;52;79;85
63;36;56;84
79;40;64;86
47;64;79;71
40;64;90;95
44;64;90;71
40;68;95;71
48;80;95;46
64;92;95;46
64;95;79;48
76;95;63;64
84;95;55;64
80;95;58;72
95;55;52;76
95;55;64;72
87;79;40;64
87;63;48;79
87;38;52;79
79;36;68;87
79;36;64;87
43;52;76;79
36;48;76;79
32;64;79;36
48;71;79;32
40;72;63;24
56;79;47;36
56;79;43;32
48;79;47;36
54;79;34;32
48;71;55;32
48;79;47;40
77;63;32;64
79;39;48;76
63;32;64;87
32;64;87;47
48;74;79;36
68;95;38;64
86;79;40;68
95;44;64;92
63;48;78;95
40;64;95;95
55;48;82;95
64;95;87;48
64;94;95;48
72;95;63;48
72;95;71;48
82;95;40;48
72;95;63;52
76;95;52;48
68;94;63;48
68;95;42;64
91;63;40;64
87;36;52;79
63;36;64;87
36;48;76;63
32;66;63;32
64;79;47;36
66;63;24;48
79;47;32;64
63;24;48;71
47;32;48;54
63;24;36;60
79;16;48;70
63;32;52;79
63;32;52;79
79;32;64;87
63;40;74;95
36;64;95;47
52;78;95;42
64;90;79;40
68;95;63;48
72;95;63;52
86;87;44;64
80;95;58;64
95;87;48;64
87;95;48;68
86;87;48;68
78;95;63;64
80;95;44;64
72;95;63;48
72;95;71;40
72;95;63;48
78;95;52;48
64;95;63;40
68;95;36;64
66;87;61;48
68;87;39;48
56;87;55;40
72;79;32;56
79;63;32;52
71;63;32;56
68;63;24;52
68;63;20;48
64;63;24;48
71;47;32;56
75;63;24;40
74;55;32;48
79;43;32;56
79;47;40;68
87;44;40;70
79;32;48;70
87;43;40;68
87;55;48;64
84;71;32;64
87;63;48;64
68;95;46;48
76;87;42;48
72;87;38;64
95;71;48;76
91;79;40;72
95;61;52;78
95;71;48;76
95;59;48;70
93;63;48;72
95;40;64;72
95;54;52;78
87;47;48;64
87;55;40;64
72;79;32;52
64;79;43;44
64;79;36;40
52;79;47;32
68;63;32;64
79;28;48;71
63;32;56;77
47;36;64;79
24;48;74;63
32;64;79;24
36;66;79;37
40;68;63;32
48;79;63;32
64;79;55;36
56;87;53;40
64;87;47;48
79;63;36;64
76;63;32;64
76;79;32;64
70;79;43;48
72;87;42;48
70;95;53;52
74;95;55;64
86;79;40;72
95;71;48;68
78;87;44;64
76;87;46;64
64;95;71;40
72;95;51;48
72;95;40;64
80;79;36;64
74;87;43;52
79;63;32;64
76;79;32;48
79;63;32;56
68;79;32;48
68;79;32;36
40;74;63;32
52;76;47;40
71;63;24;52
79;39;36;64
75;47;32;56
79;22;44;76
47;32;56;79
35;40;73;79
32;56;79;47
48;72;79;46
48;78;79;36
52;87;55;40
64;87;63;40
68;95;55;44
64;94;71;40
64;91;79;44
64;94;87;44
76;95;71;48
72;95;71;48
76;95;79;48
72;95;49;64
87;87;44;68
84;95;44;64
92;71;52;72
94;79;40;64
93;79;44;68
84;79;36;68
87;61;48;74
87;47;48;70
79;32;48;70
87;55;32;68
79;36;48;70
79;38;32;64
79;45;36;64
79;55;32;48
75;47;32;52
68;63;24;52
71;47;32;60
77;43;32;68
63;20;48;64
79;33;32;64
63;32;52;75
55;32;64;79
47;36;64;87
39;48;76;63
34;52;79;63
36;68;87;32
48;79;79;53
56;84;79;36
64;87;87;40
64;94;79;44
72;95;54;48
72;95;63;64
76;95;49;64
64;94;79;48
84;95;54;64
68;95;63;64
76;95;48;64
74;95;51;64
90;75;48;72
90;79;40;72
95;47;48;76
87;36;48;86
79;36;64;83
79;32;64;87
55;40;64;87
47;48;72;79
32;56;76;87
32;56;87;47
36;68;79;47
36;72;79;32
40;70;79;37
48;85;63;32
48;79;63;32
52;79;55;32
48;77;79;42
48;78;63;32
52;87;63;40
52;79;79;36
64;86;71;40
64;92;63;48
70;95;47;48
64;95;71;48
72;95;46;64
78;95;46;64
84;87;44;64
72;95;55;64
76;95;48;64
68;95;63;64
68;95;62;64
72;95;63;48
68;95;55;48
68;95;54;52
68;94;53;48
68;95;63;48
64;95;63;40
64;87;61;48
68;87;46;48
56;85;71;32
56;79;63;32
52;79;63;32
52;79;63;32
48;74;63;32
64;79;36;44
52;79;36;40
64;63;20;48
64;63;31;36
60;79;39;32
40;75;63;32
52;79;47;36
52;79;63;32
52;79;63;32
52;79;63;36
52;87;63;32
64;87;63;40
64;95;51;48
56;87;71;40
64;87;63;48
64;87;79;40
72;95;55;64
87;79;48;72
95;71;52;90
95;54;64;84
95;48;64;89
63;48;76;95
48;64;89;79
48;72;95;44
64;95;63;40
64;93;63;40
56;87;71;36
64;87;59;40
56;87;63;40
52;79;71;32
64;79;45;36
48;79;55;32
52;79;24;48
79;47;32;64
79;24;44;79
28;40;74;55
32;56;79;28
32;64;79;24
36;68;63;20
48;75;63;32
40;70;79;32
48;79;63;32
52;79;63;36
56;87;55;40
72;79;36;52
70;79;41;48
72;79;36;56
72;79;40;56
76;87;40;52
68;95;51;52
76;95;40;64
76;87;40;64
86;79;44;72
95;55;48;82
87;40;64;95
55;52;78;79
40;68;95;46
64;90;63;48
74;87;36;64
95;55;48;76
79;40;64;87
42;48;86;63
40;76;79;63
40;78;79;32
48;74;79;32
56;79;55;36
70;71;32;36
48;79;47;32
52;79;24;36
64;79;28;40
64;63;24;44
52;79;31;40
64;79;24;48
79;55;32;56
79;34;48;79
63;36;68;79
32;52;87;47
48;76;79;36
64;87;55;48
72;95;51;52
86;79;40;64
91;71;40;68
95;71;44;64
95;79;40;74
93;79;48;48
84;95;46;64
80;95;50;64
72;95;63;64
80;95;44;64
74;95;52;64
82;87;40;64
76;95;46;56
79;95;36;64
95;47;48;76
87;34;64;87
63;40;72;79
32;64;87;55
48;72;79;32
64;87;63;32
64;79;32;52
79;47;32;64
63;32;54;79
26;44;78;79
32;56;79;47
40;74;79;32
52;79;63;36
66;79;34;44
64;79;55;40
64;87;63;44
64;87;55;48
48;84;63;36
44;76;79;32
48;74;79;32
52;87;79;40
64;86;87;44
64;92;87;44
64;94;87;48
64;94;87;48
64;90;87;55
64;95;79;48
80;95;71;48
64;95;79;40
64;95;63;64
78;95;36;64
84;87;36;64
72;87;53;48
68;87;38;36
52;79;63;32
44;78;79;36
48;76;79;32
48;74;79;39
40;68;79;32
40;77;63;24
40;74;55;32
50;79;47;32
40;76;55;32
40;77;63;32
48;79;63;32
52;87;55;36
64;79;63;40
64;87;63;40
52;79;79;32
64;87;63;40
72;87;40;64
80;79;36;64
82;79;36;64
84;79;40;64
70;95;36;64
93;63;48;76
95;54;64;88
95;48;64;78
95;55;64;86
95;48;72;95
79;52;84;95
48;68;90;95
79;64;80;95
48;64;84;95
48;64;87;71
48;78;95;40
64;91;79;44
64;93;63;40
64;84;79;36
70;87;47;48
72;79;39;40
64;79;42;36
52;79;55;36
66;63;32;64
79;26;48;74
24;56;75;63
32;52;79;36
32;68;63;24
32;70;63;24
52;79;55;32
52;79;63;32
48;87;63;36
48;79;79;36
40;76;79;36
40;74;79;32
40;74;87;63
40;78;87;40
72;95;59;48
64;95;79;40
64;95;71;64
72;95;71;52
76;95;50;48
76;95;55;48
82;87;48;68
86;87;40;68
87;79;44;64
68;95;55;48
64;87;79;36
64;86;79;32
48;78;87;47
48;78;79;32
56;87;63;32
48;76;79;32
48;79;63;32
40;70;79;24
48;77;79;32
44;76;63;24
48;79;55;32
36;68;63;32
32;71;79;32
32;64;79;32
36;66;63;47
36;64;79;24
48;78;63;32
44;79;63;36
64;79;42;48
64;87;55;40
64;87;55;40
64;87;63;40
52;86;79;40
64;94;71;48
64;87;79;44
64;95;63;48
72;95;48;68
76;95;48;64
92;79;48;68
84;79;40;68
90;79;40;72
82;87;40;64
86;79;48;68
82;79;40;64
82;63;40;64
76;63;32;64
87;55;40;79
55;40;68;79
39;48;74;79
37;48;70;79
32;48;78;79
32;64;79;55
32;64;87;47
40;70;63;32
40;69;63;24
32;64;79;20
40;73;55;24
32;64;79;26
36;70;63;32
36;71;63;32
44;71;63;32
68;79;32;56
79;47;44;52
68;79;32;64
78;63;32;52
78;71;32;64
79;79;32;52
64;87;47;52
84;71;40;64
95;63;40;68
94;63;52;72
86;79;44;64
85;79;40;52
72;87;50;52
68;95;38;64
72;87;44;52
72;87;32;64
72;79;36;56
74;63;32;56
64;79;47;40
66;79;32;48
64;79;32;44
64;63;32;48
56;79;28;44
56;79;26;40
60;63;24;40
60;63;20;40
48;63;28;32
60;55;16;48
75;39;20;52
79;30;32;64
79;28;40;71
79;32;52;87
32;48;76;63
32;64;79;59
32;64;86;63
36;64;82;79
36;64;87;71
40;64;95;63
48;76;95;44
64;95;71;48
64;93;79;48
68;95;48;64
90;79;40;72
88;79;44;64
84;87;42;64
95;63;64;76
95;79;48;76
95;55;64;80
95;46;64;86
79;40;72;93
79;40;68;95
53;48;76;95
52;48;78;79
40;64;78;95
40;52;86;63
36;64;79;79
32;64;87;55
40;68;87;47
44;78;63;32
52;87;47;36
44;79;63;32
48;79;63;40
48;79;55;36
56;87;47;36
40;68;79;32
40;74;63;32
52;79;55;36
64;79;32;48
56;79;55;40
68;79;32;52
68;79;46;48
72;79;36;48
64;87;53;48
72;87;38;48
79;71;40;68
91;63;44;68
84;79;44;64
95;63;48;76
95;55;48;76
95;44;64;84
79;40;64;95
54;64;76;95
47;52;78;79
40;64;86;87
40;64;87;63
40;64;91;63
40;64;87;55
40;68;87;55
40;72;79;32
48;79;71;44
32;64;79;39
32;56;79;63
32;64;79;28
48;79;47;40
52;79;47;32
64;79;32;52
68;63;24;52
71;63;32;52
68;63;24;48
64;79;32;56
70;63;24;52
70;63;32;48
64;79;39;48
68;79;32;52
76;79;36;64
77;79;32;64
70;79;40;52
76;79;36;48
64;95;55;48
74;95;48;48
64;87;79;40
64;95;51;36
40;80;87;36
40;74;87;79
48;76;87;36
48;79;79;40
52;83;63;40
66;87;32;48
52;87;55;40
56;87;45;32
48;79;63;32
56;79;45;36
56;79;43;36
56;79;28;32
32;66;63;20
48;75;31;32
32;66;47;24
56;63;16;32
48;63;29;32
68;47;20;52
63;63;20;40
58;63;24;48
74;47;32;64
79;32;36;48
56;79;38;40
64;79;32;48
56;79;47;40
64;79;32;48
64;87;47;48
78;79;32;48
56;87;79;40
52;87;79;44
48;72;95;40
48;76;95;40
48;72;87;51
64;87;79;44
64;93;79;40
52;84;87;48
52;76;95;63
48;76;95;63
48;76;87;36
64;87;63;48
64;87;47;48
76;79;32;64
68;79;32;52
79;55;32;52
79;47;32;64
79;39;40;52
63;20;40;66
63;20;44;66
79;20;48;77
37;40;64;79
24;48;76;63
24;56;77;63
32;56;79;37
32;64;79;36
40;68;63;32
48;76;79;32
40;68;79;32
40;76;79;32
48;79;79;32
52;86;63;36
52;79;79;36
68;87;40;48
64;95;55;48
72;95;44;64
76;79;44;64
84;79;44;64
64;95;63;48
68;95;63;64
80;95;46;64
78;95;55;48
52;78;87;36
64;91;63;40
52;85;71;36
52;86;55;36
48;79;79;32
52;79;63;32
48;78;63;32
48;76;55;32
32;68;63;26
32;64;79;30
36;66;63;24
32;60;79;37
32;58;79;26
52;79;39;32
48;79;47;36
40;68;79;43
40;70;63;32
40;66;79;32
40;74;79;32
48;79;63;32
48;78;79;32
64;87;63;36
40;68;87;32
48;78;79;51
48;78;95;42
48;74;95;79
48;80;95;50
48;80;95;62
64;84;95;48
64;86;95;50
48;80;95;63
48;76;95;63
48;76;95;55
64;94;79;48
48;80;95;44
48;72;95;55
48;78;87;38
48;76;87;40
40;68;87;40
36;64;79;63
32;56;79;63
32;64;79;63
32;64;79;47
32;60;79;45
32;56;79;47
32;64;79;47
32;64;79;32
40;64;63;32
40;74;63;32
52;79;47;32
40;75;63;32
52;79;63;40
48;79;63;32
52;79;63;32
48;76;79;32
56;86;55;40
64;87;63;48
68;95;55;48
79;79;40;68
86;79;40;76
95;63;48;72
95;40;64;93
79;44;72;95
63;64;80;95
48;68;93;71
48;72;95;87
48;76;95;63
64;78;95;40
48;79;87;47
40;68;87;59
40;68;87;47
36;72;79;36
48;74;79;32
56;79;63;32
64;79;33;48
77;63;32;48
64;79;32;48
75;63;32;56
76;55;32;64
79;39;40;60
79;36;36;66
63;32;48;64
79;47;32;64
79;24;48;70
63;32;48;79
47;40;64;79
63;40;68;79
38;52;76;79
47;48;78;79
36;64;87;79
40;68;95;51
48;68;95;55
48;76;95;51
48;68;93;95
48;68;92;79
48;76;95;79
48;76;103;63
52;80;95;52
64;84;95;44
64;95;63;48
64;87;87;40
48;80;95;42
40;72;87;40
52;87;63;40
72;79;32;48
72;63;32;48
64;79;32;40
64;79;24;48
66;63;32;52
79;32;40;64
79;34;32;70
79;20;52;66
63;24;48;79
47;32;58;79
32;48;69;63
32;48;77;63
32;56;79;55
32;64;79;43
40;70;79;32
52;79;55;36
48;79;79;32
52;87;63;36
64;87;61;48
68;95;44;52
72;87;40;64
72;95;40;40
52;80;95;44
44;76;95;63
44;72;95;63
48;72;95;63
48;72;95;63
48;72;95;79
48;76;95;63
48;68;95;55
48;76;95;44
52;80;79;40
52;78;79;36
48;78;79;36
40;74;79;32
40;64;79;63
32;56;79;63
32;52;79;55
32;64;79;39
32;64;79;44
32;56;79;28
32;56;79;63
32;52;79;63
32;52;79;63
32;68;87;39
40;68;79;32
48;76;79;32
44;78;63;32
44;70;79;32
48;76;63;36
40;78;79;32
40;72;79;40
44;70;87;38
40;64;82;79
36;64;87;63
40;64;86;79
44;64;86;79
48;76;95;52
52;80;95;48
52;86;79;48
48;72;95;63
48;68;95;52
52;78;95;42
64;82;79;40
64;78;79;36
64;87;61;40
64;94;63;48
68;87;34;48
64;87;63;40
64;79;63;32
40;66;79;32
40;74;63;32
48;78;55;32
48;79;47;32
44;79;63;24
48;79;45;24
36;70;63;20
40;68;63;24
36;64;63;24
32;56;79;34
32;56;79;39
32;64;79;32
32;68;79;32
40;72;63;32
40;70;79;32
40;68;79;38
40;76;79;32
64;87;59;40
48;82;79;32
56;78;79;46
44;64;87;63
48;78;95;40
48;76;95;36
48;76;87;40
48;76;87;36
64;86;63;40
40;68;79;34
32;74;79;32
32;56;79;55
32;52;79;63
32;56;79;47
36;64;79;32
32;56;79;39
32;48;66;79
32;48;70;63
24;48;71;63
32;48;79;31
32;56;79;63
32;52;79;63
32;52;74;79
32;64;79;47
36;56;79;55
36;64;79;39
32;64;79;38
36;64;79;63
32;64;79;79
36;64;83;71
40;64;87;95
40;64;84;79
42;64;84;95
44;72;95;63
48;76;95;71
64;80;103;67
48;72;93;111
52;72;94;87
52;68;95;71
64;80;95;55
64;76;95;59
52;80;95;59
48;72;95;32
64;95;55;48
64;87;36;48
64;87;63;40
64;79;32;56
72;63;32;64
87;32;44;68
79;24;44;70
63;32;48;64
63;24;48;79
39;36;56;63
20;52;77;39
24;48;79;26
32;56;79;43
24;48;75;79
32;40;68;79
32;48;70;79
32;48;72;63
32;52;78;79
32;64;84;63
36;56;76;95
42;48;72;87
40;64;91;79
40;64;93;79
40;64;92;87
44;76;95;63
48;80;95;48
64;88;95;48
48;76;95;71
52;80;95;46
48;76;95;54
44;64;94;79
44;64;87;63
40;64;90;63
40;64;87;79
36;64;87;71
40;70;87;53
36;72;87;36
36;64;79;63
32;64;79;55
32;56;79;63
32;64;79;47
32;64;87;63
32;56;78;63
32;48;79;55
32;64;79;39
48;71;63;32
40;71;63;24
48;76;43;36
64;79;24;48
71;63;32;56
79;63;32;52
74;63;32;48
72;63;32;52
79;63;32;70
71;32;64;87
55;48;72;87
40;64;91;71
44;64;80;95
40;68;90;63
48;72;95;79
48;72;95;63
64;92;95;52
64;90;95;48
64;95;79;48
64;84;95;44
64;90;79;48
68;95;71;48
64;87;79;40
52;82;79;36
44;72;87;46
40;68;87;32
52;79;63;32
40;64;79;32
32;64;79;32
32;56;79;36
40;78;47;32
56;79;30;36
70;63;24;48
66;63;32;64
79;24;40;72
55;32;64;79
46;32;64;79
47;40;68;79
36;44;74;47
32;56;79;63
32;64;87;47
32;68;87;36
48;76;79;36
64;87;71;40
64;94;63;44
48;80;87;36
64;86;79;40
64;86;95;44
52;82;95;40
52;87;87;40
64;87;63;48
72;95;40;64
78;79;40;52
68;87;55;40
56;87;55;40
48;79;79;32
40;68;79;34
32;44;70;63
32;48;79;79
32;44;64;79
55;40;64;79
63;32;52;79
47;32;64;79
55;32;64;79
36;40;74;63
32;56;79;36
32;66;63;28
32;64;79;20
40;74;63;20
44;71;63;32
64;79;39;40
40;71;71;32
48;79;63;32
48;78;63;32
48;76;63;39
40;64;87;47
40;64;86;63
36;64;85;71
40;64;95;63
48;80;95;44
48;80;95;40
48;78;95;53
40;72;95;71
40;72;95;50
64;87;79;40
68;95;63;52
72;95;50;48
84;95;44;64
95;63;40;48
72;87;36;56
87;40;48;68
87;36;48;79
63;32;64;79
35;48;78;63
32;52;75;79
32;52;78;63
32;48;68;79
55;36;64;79
32;48;76;63
24;56;78;63
32;48;79;63
32;56;79;47
40;64;79;47
32;52;76;63
32;52;78;63
32;52;74;79
42;48;74;79
44;52;84;79
40;52;84;79
40;64;80;79
38;64;91;79
40;64;91;63
40;72;95;52
48;80;95;55
48;72;95;63
48;72;92;79
48;72;95;87
48;72;95;63
48;76;95;55
48;64;95;50
40;72;95;63
40;64;87;71
40;64;85;63
51;48;76;79
40;64;87;63
40;64;84;63
32;56;70;87
32;52;76;63
32;52;76;63
32;64;79;47
32;56;79;63
32;64;79;43
32;64;79;36
32;64;79;30
32;64;79;24
44;71;63;24
48;73;55;40
52;79;55;36
52;79;63;32
40;71;79;32
48;74;63;36
40;78;63;32
52;79;63;36
40;76;79;32
64;91;46;40
64;87;63;40
84;79;40;64
82;79;40;64
92;51;48;68
87;40;64;94
71;44;72;95
63;48;72;95
55;52;72;95
47;52;76;79
40;64;80;79
36;64;87;63
32;64;72;95
42;64;84;63
36;64;87;44
40;64;87;45
40;64;87;63
36;56;78;63
32;52;74;79
32;64;79;63
32;48;75;63
32;52;74;63
24;56;78;63
32;56;79;55
40;72;79;32
40;70;79;32
40;64;79;32
36;64;79;32
48;79;55;32
40;76;79;32
48;79;55;36
48;79;63;32
52;79;47;32
48;70;79;39
40;68;79;40
36;68;87;40
40;72;79;34
40;72;87;40
48;78;79;46
48;78;95;44
48;76;95;54
40;72;95;47
44;68;95;63
40;64;87;63
40;64;87;63
40;64;79;63
36;56;79;63
32;64;76;71
34;52;79;63
32;52;74;63
32;52;79;63
32;52;79;43
36;64;79;32
32;68;79;32
44;75;55;32
48;79;47;36
56;79;34;48
70;63;32;64
79;32;40;64
79;38;40;70
79;32;48;79
63;32;64;87
34;48;79;79
40;48;78;79
59;48;64;82
79;40;64;87
63;40;72;91
63;48;64;95
55;48;76;95
44;64;87;79
44;68;90;95
48;68;90;87
48;68;90;95
48;68;94;79
48;72;95;79
52;76;95;59
64;86;87;48
48;82;95;40
48;80;79;51
40;68;87;47
40;64;87;63
32;64;87;44
32;64;79;79
32;56;79;79
32;64;87;43
36;66;79;34
36;68;79;45
32;48;74;63
32;52;79;63
24;52;79;39
32;56;79;47
32;64;79;47
32;52;79;47
32;66;79;34
36;66;63;32
32;64;79;32
40;64;79;44
32;52;79;63
32;56;87;63
36;64;79;63
40;68;95;55
40;68;93;55
44;72;95;47
48;76;95;44
64;87;79;48
48;72;95;63
40;76;95;63
40;76;95;63
48;76;95;46
48;84;95;40
64;87;79;40
40;72;91;38
40;68;87;55
40;68;87;44
32;64;79;47
36;68;79;32
48;79;63;32
48;79;55;32
48;79;47;32
48;79;47;32
60;63;20;40
74;55;24;52
71;39;32;48
78;39;32;64
63;24;40;71
55;24;56;79
39;36;70;79
32;48;78;63
32;52;79;47
32;64;79;55
36;52;76;79
32;64;87;55
44;74;87;46
40;64;87;47
40;70;87;71
40;72;95;55
48;80;95;55
48;76;95;63
40;68;93;79
48;72;95;63
52;76;95;52
48;88;95;40
64;84;95;54
44;68;95;47
48;80;79;44
48;76;79;32
48;79;63;40
48;85;63;40
64;79;32;40
64;79;32;52
79;55;32;52
79;43;36;64
79;26;40;64
63;24;48;75
20;40;63;63
20;48;71;47
20;48;79;28
32;48;71;47
24;52;79;34
32;64;79;26
36;68;79;32
48;79;63;32
64;79;32;64
87;32;52;79
63;32;64;79
63;36;64;87
51;48;82;79
52;64;82;79
44;68;90;87
44;68;86;79
48;64;95;79
52;64;88;95
52;68;88;95
48;72;95;75
64;76;95;56
48;76;95;48
64;90;71;40
64;95;79;48
64;95;63;40
64;95;63;40
64;91;55;40
64;87;42;52
68;79;38;48
68;79;32;48
56;79;47;32
40;71;63;24
40;75;47;32
32;64;63;20
40;71;47;24
32;68;63;16
36;64;63;26
24;48;71;47
26;44;64;79
30;52;79;46
32;64;79;39
32;64;79;39
32;68;79;32
48;78;63;32
52;87;63;32
64;87;46;48
64;87;63;36
48;79;87;36
64;84;87;44
48;72;95;63
48;80;95;52
48;76;95;61
48;80;95;48
48;76;95;55
48;80;87;55
64;80;95;44
48;80;87;46
40;76;87;40
48;68;79;47
36;64;87;43
40;64;87;55
36;52;76;79
38;48;79;79
32;64;79;63
32;48;79;79
32;64;79;63
32;52;79;63
32;52;76;55
32;52;79;63
32;52;79;47
32;68;79;32
32;64;79;47
32;70;63;36
32;56;78;63
32;64;79;63
32;64;87;55
36;64;87;63
36;64;78;79
36;64;79;79
42;56;78;87
59;52;84;95
44;64;94;71
52;64;86;95
55;64;86;95
52;64;95;87
52;64;84;95
52;72;95;71
48;72;94;79
54;64;76;95
48;64;82;95
44;64;95;71
44;64;87;71
40;64;84;79
36;64;87;63
36;64;87;55
32;64;79;63
32;64;87;47
32;64;79;32
40;70;79;39
32;64;79;39
40;64;79;36
32;64;79;28
32;70;63;32
32;68;79;24
32;66;63;32
32;64;79;47
32;64;79;47
32;64;79;63
40;68;87;47
32;64;87;43
40;68;87;47
40;64;87;55
36;68;87;34
52;84;79;36
64;93;63;48
64;93;71;44
68;95;63;40
48;80;95;46
64;84;79;48
48;76;95;59
40;68;95;55
48;76;95;52
48;72;95;55
40;68;91;63
40;64;86;71
36;64;86;63
40;64;87;63
36;64;76;79
32;64;87;63
32;64;86;55
32;64;86;63
32;64;86;63
44;48;77;79
34;48;74;63
32;56;87;55
32;48;72;63
32;48;79;47
32;64;79;43
32;64;79;39
24;64;79;32
40;72;79;43
32;64;79;39
36;70;79;36
52;84;71;32
56;87;63;32
64;91;44;52
68;93;42;48
72;87;36;64
93;79;40;64
80;79;40;64
95;63;48;68
93;63;48;72
95;44;52;78
87;40;64;87
79;40;64;93
40;64;82;63
40;68;87;55
36;64;79;63
32;64;87;46
32;64;87;47
32;68;79;42
36;64;87;32
40;68;79;36
32;64;79;55
32;64;79;55
28;64;79;47
32;64;79;63
47;36;68;63
32;48;79;63
32;48;70;63
28;48;79;63
32;48;76;63
32;68;79;43
32;56;78;63
32;52;74;87
47;40;64;79
47;48;79;79
36;64;87;59
40;68;87;47
40;72;87;40
48;79;79;40
48;87;79;40
64;93;63;48
68;95;62;52
84;79;40;64
84;79;48;72
95;36;64;95
63;40;64;95
63;48;64;91
63;40;68;95
52;64;78;79
44;64;76;87
51;44;64;91
55;40;64;87
55;40;68;87
47;48;76;71
38;48;76;63
32;64;79;55
32;64;79;55
34;48;76;55
32;64;79;32
32;56;79;36
36;68;63;26
32;64;79;34
32;64;79;32
40;70;63;24
40;76;47;32
44;76;63;32
56;79;34;40
64;79;55;40
70;79;32;64
87;63;40;64
87;36;48;76
63;32;64;87
63;36;64;87
63;36;64;87
45;48;74;95
61;48;76;95
40;68;91;79
48;64;80;87
48;64;95;44
52;84;95;36
56;82;79;44
52;86;79;36
64;87;55;48
72;79;32;64
87;55;40;64
87;43;48;74
63;32;48;64
63;32;48;75
63;32;52;78
47;36;64;79
55;32;52;79
47;32;60;63
24;48;79;47
32;48;71;55
24;52;79;44
32;48;74;63
32;48;74;63
32;48;79;55
32;64;87;55
32;64;87;47
32;64;87;47
32;64;87;46
40;72;79;40
48;76;87;42
48;82;79;55
48;76;95;44
48;91;79;48
48;78;95;55
48;80;95;48
48;80;95;51
48;78;87;48
64;90;79;40
64;87;79;40
48;84;87;36
64;87;79;40
48;76;87;36
48;79;79;42
40;70;87;38
44;79;79;36
36;64;87;43
36;64;79;47
32;52;76;63
32;64;79;46
32;64;79;38
32;64;79;53
32;48;76;55
32;56;79;26
32;64;79;24
44;77;47;32
40;68;63;20
40;77;55;32
40;71;79;24
52;79;47;36
56;79;55;32
52;79;47;32
40;68;79;32
48;79;55;48
72;79;34;64
87;55;48;76
79;36;52;82
63;40;68;95
55;48;74;95
63;64;78;95
46;64;84;95
54;64;95;79
50;64;88;95
50;64;93;79
48;64;90;71
48;68;95;71
51;64;78;87
50;48;80;87
46;48;72;79
36;64;87;55
32;64;84;63
32;64;79;55
32;52;74;63
32;56;79;63
32;36;64;79
39;32;64;79
47;32;56;79
63;32;56;70
63;24;48;79
37;40;68;79
38;36;64;79
39;40;74;63
32;48;70;63
32;52;79;55
32;64;79;63
36;64;87;47
36;64;87;63
32;64;87;63
40;68;93;55
40;72;91;71
40;64;87;79
44;64;95;71
44;68;92;79
48;84;95;52
64;94;87;48
68;95;71;48
64;90;79;40
52;82;79;48
64;95;47;64
68;87;44;52
76;79;36;72
79;32;64;79
32;64;87;39
40;70;79;42
32;56;79;55
32;64;79;43
38;40;68;71
32;48;78;63
34;48;68;63
39;40;70;71
39;40;64;63
26;48;70;79
38;40;68;63
32;64;79;44
32;68;79;34
40;79;63;36
32;64;87;55
32;64;87;79
55;48;68;95
63;48;64;92
63;48;76;87
55;64;76;95
57;64;88;79
44;72;95;79
48;64;86;87
52;64;95;95
52;64;88;95
52;64;94;95
63;64;76;103
71;64;88;95
60;68;90;95
48;72;95;79
50;64;87;79
48;72;94;79
47;64;87;79
40;64;95;71
40;64;87;79
40;64;95;59
40;64;84;63
55;48;72;79
40;68;87;47
32;64;79;63
38;48;70;63
32;64;79;39
32;68;79;28
40;76;55;32
44;70;79;28
40;74;63;40
64;79;39;48
87;47;48;68
79;32;64;87
63;40;64;95
53;48;74;87
63;48;64;87
71;40;68;95
55;64;84;95
48;64;80;95
55;64;90;79
52;64;88;95
48;80;95;55
48;76;95;71
48;80;95;71
48;72;95;63
48;68;95;54
48;76;95;71
48;72;95;59
40;70;93;71
40;68;95;55
40;76;91;63
48;76;79;42
36;72;87;36
48;83;63;32
48;79;63;32
48;79;63;32
64;79;55;32
52;79;55;32
48;79;39;40
72;55;32;48
79;39;32;66
63;20;44;64
63;24;44;71
63;32;52;79
59;36;64;79
36;48;70;79
46;44;76;79
47;52;87;79
40;64;90;79
40;72;95;71
48;64;93;79
61;64;88;95
71;64;88;95
54;64;88;95
67;64;92;87
48;76;95;95
56;68;94;95
52;76;95;52
64;86;95;48
64;94;71;48
76;95;59;64
82;87;59;48
68;95;40;64
89;63;36;64
79;63;36;70
63;32;64;87
55;40;64;79
32;64;79;32
48;78;63;32
64;79;39;40
64;79;32;40
69;63;20;48
79;44;32;56
79;36;40;56
77;39;40;68
63;24;52;79
55;32;64;79
53;36;56;79
55;36;64;79
38;52;79;55
36;56;79;63
36;52;78;79
38;56;72;87
50;52;72;91
79;40;64;95
63;52;84;95
48;64;92;95
55;64;84;95
71;64;80;95
59;68;101;79
48;68;94;79
48;68;95;71
44;72;92;79
48;72;95;63
48;76;94;63
48;64;95;63
40;76;95;40
44;68;95;44
48;84;63;32
64;87;47;32
52;87;47;40
64;79;47;32
48;79;55;32
52;79;35;32
48;79;47;32
56;79;24;40
75;55;32;64
79;32;52;76
63;32;64;79
55;32;64;86
59;40;64;87
59;40;64;87
55;48;70;87
55;48;74;87
71;40;64;95
59;48;80;87
55;64;92;79
40;68;95;79
48;72;95;71
48;84;95;48
64;95;95;48
68;103;79;52
64;88;95;48
68;103;63;64
88;95;44;72
95;71;52;76
95;44;68;92
79;40;64;90
63;48;68;95
63;40;68;95
55;52;76;79
40;48;78;79
36;64;79;79
36;64;79;63
36;64;79;63
32;48;74;71
32;52;78;63
32;52;79;55
32;64;79;63
32;52;79;63
26;48;70;79
32;52;79;47
32;64;79;32
32;64;63;47
32;64;87;55
36;64;87;41
32;66;87;55
32;68;87;55
36;64;87;79
44;64;90;63
48;72;95;55
48;84;87;52
48;76;95;63
48;76;95;79
48;68;95;63
48;72;95;79
44;68;95;79
48;68;95;63
40;72;95;61
48;76;95;63
40;68;95;63
40;72;95;46
48;84;79;40
64;87;63;36
40;70;87;46
40;70;79;40
32;64;79;47
32;70;63;32
40;76;63;32
56;79;32;40
68;63;24;40
66;63;24;32
60;63;16;40
79;47;24;48
79;31;36;66
63;32;48;74
63;32;56;79
55;36;56;79
55;32;56;79
63;32;52;79
47;40;64;79
32;64;87;63
36;64;84;63
36;64;95;63
46;64;86;95
46;64;88;87
52;64;90;87
44;64;95;87
59;64;88;95
48;80;95;71
48;80;103;75
48;84;95;79
48;72;92;87
44;64;93;79
40;68;94;63
40;68;95;53
36;68;87;36
44;68;87;47
32;64;87;37
32;68;79;32
32;64;79;32
32;64;79;37
32;56;79;39
32;64;63;32
40;77;47;32
48;79;45;32
54;79;32;40
70;55;32;52
79;39;32;64
79;30;40;64
63;26;44;76
79;32;40;74
79;32;48;79
63;32;52;84
79;32;52;79
79;32;64;87
59;48;72;87
63;48;72;95
63;48;76;95
55;64;87;95
79;64;76;103
52;64;88;95
95;52;80;109
52;80;95;79
52;72;95;71
48;82;95;79
64;94;95;48
64;84;87;48
64;95;63;48
72;95;48;52
82;79;36;64
91;42;48;68
79;45;48;76
79;38;40;78
63;32;64;79
55;32;64;79
63;32;52;79
55;32;64;79
55;32;64;79
47;40;72;63
32;44;70;63
24;52;79;55
24;52;77;63
43;40;72;79
47;40;64;87
36;52;79;63
46;48;68;79
55;48;68;95
44;64;80;79
40;64;91;63
48;72;95;46
64;95;52;40
64;95;71;48
64;95;63;40
78;95;53;64
92;87;48;48
72;95;55;64
86;79;48;64
80;95;40;64
95;40;64;87
63;44;72;95
61;48;68;84
79;36;64;87
79;32;64;84
79;36;52;79
79;32;48;66
79;32;48;77
79;32;56;76
79;32;52;79
47;32;56;66
63;20;48;76
45;32;56;71
63;20;48;77
35;40;66;63
38;40;64;79
39;48;70;63
47;40;68;79
32;64;79;43
32;64;79;63
32;64;86;47
48;84;63;36
64;87;44;40
64;93;63;48
76;79;36;52
68;95;46;64
84;79;40;64
95;79;48;76
95;50;64;76
79;40;68;95
48;64;87;87
48;68;92;63
44;72;95;71
48;80;95;48
48;80;95;63
40;68;93;63
40;72;87;42
40;76;87;38
36;48;72;79
32;52;79;55
32;64;79;47
32;56;79;55
32;64;79;55
32;64;79;43
32;64;79;35
32;70;79;24
48;79;47;24
36;68;79;24
36;76;55;32
44;79;43;36
48;74;63;34
32;64;79;47
32;64;79;63
40;48;70;79
36;52;84;63
47;48;68;87
63;40;72;87
79;40;64;91
79;40;68;88
79;48;68;95
63;52;78;87
79;48;72;95
79;48;76;95
77;48;80;95
79;48;72;95
95;44;64;95
95;48;64;84
79;42;68;91
79;40;64;84
79;36;64;87
63;44;76;87
46;52;70;79
36;56;79;38
32;64;79;32
32;66;63;43
24;48;74;63
24;52;79;63
33;48;70;63
36;40;64;79
45;40;66;63
24;48;79;47
24;48;74;55
32;64;79;39
32;56;79;55
32;64;79;44
32;64;87;39
32;68;87;53
32;64;79;63
32;64;79;40
32;64;87;44
36;68;79;63
44;64;78;91
63;48;76;92
63;52;76;95
58;64;86;95
79;48;72;95
79;52;80;95
79;64;76;95
71;64;76;103
59;64;84;95
71;64;84;87
63;64;92;87
44;72;95;71
48;64;89;79
40;64;95;63
40;64;84;79
36;64;86;79
44;52;78;79
42;48;72;87
63;40;56;85
63;40;56;79
79;32;52;76
79;32;48;87
63;36;64;79
55;32;64;79
63;32;52;79
63;32;64;87
63;32;64;87
47;48;76;87
63;48;72;95
55;48;78;87
63;48;68;95
47;64;87;87
55;64;76;95
55;64;95;57
48;76;95;63
40;64;95;95
79;48;72;95
63;64;88;79
48;84;95;54
64;90;95;48
64;82;95;48
64;92;79;40
64;86;87;40
68;95;53;40
70;95;46;64
84;79;36;64
94;63;40;68
87;55;40;64
87;55;40;68
87;39;48;64
79;32;48;76
59;32;64;87
43;40;64;63
32;48;79;63
24;52;79;47
24;52;79;55
32;48;75;47
32;48;71;63
39;48;74;63
32;64;79;55
32;70;79;32
40;78;79;32
56;86;63;36
64;87;63;40
66;95;40;64
87;79;40;64
93;63;48;72
95;55;64;80
95;44;64;87
59;64;82;79
51;64;86;79
50;68;95;95
71;64;76;95
71;64;84;95
79;64;86;95
79;64;84;103
71;64;84;95
52;64;95;95
58;64;90;87
48;68;95;63
44;72;95;47
40;74;87;63
55;48;72;87
44;48;76;63
32;64;79;39
36;72;79;32
44;74;63;24
48;79;45;32
52;79;20;48
75;55;32;48
79;35;32;64
79;29;40;64
63;24;48;79
47;36;64;79
63;32;64;79
45;44;76;79
55;40;64;87
47;48;79;79
63;40;64;95
40;64;76;95
59;64;78;95
63;64;84;95
63;64;86;95
52;68;95;71
48;72;95;79
48;84;95;63
48;80;95;48
68;95;79;48
64;92;79;48
72;95;58;48
72;95;50;52
80;79;36;52
87;63;36;64
87;63;40;64
87;55;40;68
79;32;64;79
63;32;64;87
55;36;64;79
39;48;66;79
32;44;72;63
55;32;52;78
55;32;64;79
55;32;56;79
47;36;66;79
43;36;68;79
38;40;76;79
47;40;64;79
32;64;87;71
42;48;78;79
36;64;85;79
47;52;70;95
55;64;80;95
40;68;95;63
48;76;95;75
48;68;95;63
64;90;87;48
64;94;79;48
72;95;55;48
64;95;79;48
72;95;54;64
84;87;48;68
95;79;48;64
86;87;40;68
95;63;40;64
95;63;40;70
95;61;40;64
95;54;48;78
87;36;64;76
79;32;52;76
63;32;64;79
79;32;52;78
63;36;64;74
79;34;48;79
71;32;44;68
79;34;36;70
71;32;48;79
79;34;36;64
79;34;40;64
79;24;48;75
63;32;52;70
79;32;52;79
63;32;64;79
63;40;64;87
63;36;64;79
32;64;87;63
36;64;95;63
40;68;93;59
48;80;95;54
48;90;79;44
84;87;52;64
95;79;48;72
91;79;48;68
95;71;44;72
95;71;48;68
95;52;64;87
95;44;64;88
87;40;68;95
71;48;76;95
63;48;72;95
63;48;72;87
63;48;76;87
45;52;79;87
55;48;68;87
59;44;76;79
32;64;85;63
32;64;79;63
32;52;72;63
32;56;79;63
32;48;70;79
26;52;79;79
63;36;64;79
39;48;79;79
53;48;76;79
32;64;87;71
47;64;79;79
47;64;87;87
55;64;87;79
40;64;84;95
71;48;76;95
55;64;94;95
63;64;84;95
79;64;88;103
87;64;80;109
75;64;88;103
56;72;88;95
65;64;88;95
69;64;86;103
79;52;84;103
79;64;76;103
79;64;76;95
87;48;64;95
87;44;72;95
79;48;68;95
63;48;76;87
71;40;72;95
47;48;84;79
55;48;68;87
63;40;72;79
63;40;64;86
79;32;64;87
47;48;70;79
32;48;76;63
32;48;64;79
39;40;64;79
32;56;75;63
32;68;79;42
32;66;79;47
32;70;79;63
46;48;76;63
32;64;87;53
45;64;79;63
32;64;83;79
55;52;76;79
40;64;91;79
61;48;72;95
71;52;80;95
63;64;84;95
87;48;72;95
95;48;68;90
87;52;76;95
95;52;64;82
95;54;64;80
95;79;48;72
95;63;48;72
95;55;48;76
95;63;48;76
95;42;64;82
79;36;64;85
79;36;64;87
63;40;64;87
63;36;64;87
63;36;68;79
55;40;64;79
47;40;64;79
55;36;56;79
55;32;64;79
55;32;64;79
63;24;52;78
63;32;52;79
63;32;64;79
79;32;52;79
63;32;64;79
63;32;52;79
63;32;64;79
79;32;52;79
79;36;64;87
79;40;64;84
95;46;64;76
87;44;64;90
95;53;64;80
95;48;64;86
95;44;64;82
95;44;64;95
79;48;76;95
63;64;76;95
53;64;78;95
79;48;72;95
71;48;76;95
55;64;72;95
52;64;86;87
59;64;84;87
47;64;87;87
40;72;95;42
56;91;63;32
68;87;36;64
72;79;32;48
79;63;32;64
79;63;32;56
79;47;32;56
79;39;32;52
79;39;36;64
79;32;48;64
63;32;40;71
63;28;48;64
79;39;32;64
79;47;40;68
79;32;52;79
79;32;48;68
79;32;48;79
47;40;64;79
63;40;64;87
63;36;64;91
71;40;64;87
87;44;64;84
79;44;64;87
87;40;68;80
79;40;64;84
44;64;92;63
40;76;95;44
40;64;91;63
44;52;76;87
55;48;78;87
63;40;64;87
79;40;64;85
79;36;64;86
55;48;74;87
63;32;64;87
63;44;76;79
32;64;87;63
32;64;87;47
32;64;79;32
36;76;79;28
36;64;79;32
48;77;47;32
56;79;37;40
79;43;32;56
79;32;52;79
55;32;64;87
43;48;76;63
32;64;87;61
32;68;87;63
36;64;95;71
44;64;92;63
42;64;86;95
79;48;68;95
79;48;72;95
95;48;72;95
87;48;68;95
95;48;68;95
95;48;72;103
95;48;64;95
95;52;64;64
86;87;48;76
95;63;48;72
95;61;48;84
79;40;64;84
87;36;64;84
79;36;64;87
79;36;48;74
79;32;56;76
79;32;48;76
47;32;68;63
32;64;79;24
44;79;47;24
56;79;43;36
68;63;32;32
68;63;24;48
63;24;48;68
63;26;40;71
79;34;40;68
63;26;48;79
79;32;48;70
79;36;48;72
63;32;64;87
79;36;64;87
87;36;64;91
63;48;68;95
63;48;70;95
79;44;68;95
63;64;84;94
79;44;68;95
87;44;76;95
79;48;76;95
71;64;88;95
63;48;80;95
55;64;88;95
55;64;82;95
52;64;92;95
63;64;80;95
63;52;82;95
63;52;76;95
53;64;86;87
59;52;76;87
36;64;95;63
40;64;85;63
36;68;87;63
32;64;87;47
40;70;79;34
36;64;79;28
40;70;63;45
32;64;79;32
40;75;63;32
44;78;55;40
68;79;32;48
79;63;32;64
79;55;40;40
78;63;32;64
79;63;36;68
87;36;48;82
63;40;68;87
63;44;64;93
79;40;64;95
50;64;80;79
55;64;90;95
63;52;80;95
79;48;72;95
95;48;68;103
95;48;72;95
87;48;72;95
79;48;68;92
87;48;64;95
95;44;64;78
95;47;48;80
87;42;52;76
87;47;48;82
87;44;40;82
79;32;56;87
55;36;68;63
32;64;79;43
40;74;79;38
32;64;79;32
32;64;79;55
32;68;79;24
40;74;63;24
32;77;55;32
79;63;32;48
66;79;32;56
79;63;32;64
79;55;32;64
79;63;36;72
87;44;48;74
87;36;64;78
95;44;64;82
91;51;52;84
95;44;64;88
79;48;76;95
79;48;68;95
63;64;84;80
95;62;52;84
95;63;64;90
87;44;68;95
95;48;76;88
95;48;64;90
95;48;64;90
79;40;68;95
63;40;68;95
54;48;70;95
38;64;84;79
45;48;72;79
47;48;72;87
47;48;72;79
36;56;79;79
47;44;68;79
55;48;70;79
55;36;64;79
63;36;64;79
36;40;66;71
39;48;79;63
39;48;76;63
32;56;79;39
40;70;79;32
48;79;63;32
48;79;63;36
64;79;39;36
72;79;39;48
76;87;43;48
82;87;36;64
95;63;64;84
95;54;64;93
95;54;64;90
95;52;64;92
54;64;95;95
79;64;80;103
75;64;84;95
79;64;80;95
71;64;92;95
63;64;84;95
71;64;86;95
95;48;68;95
87;48;68;88
95;59;64;84
95;44;68;94
79;48;72;95
46;64;86;87
63;64;82;87
47;64;76;95
95;40;64;87
79;40;68;87
63;40;64;93
47;48;76;71
32;64;84;63
32;72;87;42
36;68;79;44
40;76;71;32
48;79;63;40
76;79;32;48
79;63;32;66
87;55;40;64
87;47;40;72
79;36;52;68
87;36;48;78
95;46;48;76
95;55;48;76
95;71;40;68
91;87;40;68
92;79;48;72
95;55;64;88
71;48;80;95
63;52;84;95
40;68;95;71
48;72;95;59
48;80;87;40
64;95;59;48
72;95;55;40
64;93;61;40
64;87;36;48
76;79;32;64
79;47;40;72
79;32;48;79
47;40;68;79
32;40;68;63
24;56;79;55
32;48;68;63
24;48;71;63
39;40;56;79
32;48;79;63
32;56;79;55
32;64;87;63
42;48;76;79
32;64;87;79
63;44;68;95
63;64;82;95
79;48;76;95
79;48;72;91
95;48;64;84
95;71;52;72
95;71;48;76
95;44;64;95
87;48;72;95
95;52;72;95
63;64;82;95
63;64;90;79
48;86;95;44
48;80;95;63
40;72;95;63
44;64;95;95
40;64;90;71
55;52;86;63
36;64;87;63
40;68;87;32
64;87;38;44
70;79;32;40
68;79;32;56
79;55;32;56
79;32;36;64
63;24;48;70
63;24;48;71
55;24;64;79
33;36;56;79
20;54;79;47
32;64;79;32
40;76;63;32
40;72;79;32
48;79;79;42
32;72;79;32
64;87;63;40
79;79;36;64
87;71;40;64
87;79;40;68
95;61;48;72
95;71;48;72
95;48;64;80
95;40;64;87
79;40;64;88
95;59;48;76
87;44;52;72
95;63;48;72
87;40;64;83
87;40;48;72
79;36;48;68
79;55;40;64
87;55;40;64
79;32;44;76
79;34;44;64
79;34;40;64
79;35;40;64
79;55;32;64
78;55;32;56
79;47;32;54
79;55;32;64
79;32;40;70
63;32;64;63
20;56;79;63
24;52;79;63
32;56;79;47
40;78;63;36
70;87;32;52
79;79;32;48
79;79;36;56
85;71;36;48
68;87;40;52
79;79;36;48
64;94;59;48
76;87;46;48
78;95;63;48
72;95;52;64
89;95;44;64
89;79;48;64
95;79;48;76
95;63;48;68
95;53;48;82
95;46;64;90
95;40;64;95
87;40;68;90
79;40;64;87
79;36;64;87
79;36;64;79
87;55;48;72
87;47;44;72
79;32;52;74
79;63;32;52
78;63;32;52
79;47;36;68
63;24;48;70
79;35;32;68
63;32;52;70
79;32;56;79
63;36;70;79
63;36;64;87
44;64;84;79
63;48;72;95
63;40;64;86
87;44;52;80
79;40;64;94
95;62;48;76
95;63;48;76
95;52;64;88
95;48;64;80
95;63;64;80
95;63;64;80
95;63;48;84
95;71;48;86
95;71;48;80
95;63;48;72
95;63;48;76
93;63;48;68
95;63;48;72
91;63;44;64
91;46;48;76
87;32;52;66
79;38;40;64
79;47;36;64
79;39;32;64
79;47;32;52
79;39;36;60
79;39;32;48
79;47;32;64
79;47;32;56
63;32;44;78
63;24;52;79
24;56;79;32
36;71;63;32
64;87;47;48
78;79;36;40
56;87;63;44
66;87;44;36
84;79;36;64
87;63;48;68
93;63;48;76
95;63;48;72
95;63;40;72
95;44;64;92
95;48;72;95
71;52;80;95
87;48;64;92
95;48;64;78
95;55;52;80
95;59;64;80
95;59;48;84
87;40;64;83
79;36;52;82
79;36;64;78
87;47;40;68
87;55;32;64
79;63;32;64
79;63;32;32
66;79;32;52
66;79;30;32
64;79;45;32
64;79;47;34
32;64;63;32
48;79;63;32
52;79;63;32
48;76;79;55
32;64;87;44
48;79;79;32
56;83;63;36
68;87;46;40
76;87;42;56
85;79;36;64
95;44;40;72
87;36;64;84
95;42;64;90
87;44;68;84
95;44;64;90
95;63;64;84
95;44;64;95
87;48;72;93
95;48;68;95
63;64;80;95
79;48;72;95
71;52;86;87
46;64;86;79
36;64;93;79
51;64;86;79
51;48;72;95
59;48;68;87
40;64;82;79
55;52;76;87
41;48;76;79
63;40;64;87
59;36;64;79
79;32;40;70
79;32;48;68
79;39;40;68
79;36;48;68
79;44;40;72
79;38;40;64
79;45;36;68
79;32;52;76
79;36;40;76
79;32;64;87
47;48;70;87
42;64;87;63
40;68;95;42
64;90;87;44
64;92;79;48
72;95;71;40
64;95;71;48
72;95;48;64
78;95;55;64
82;87;48;64
95;71;40;68
90;79;44;48
76;79;38;64
86;63;36;52
86;63;32;64
87;55;40;68
87;38;48;76
79;32;52;72
79;32;48;68
63;24;44;64
79;30;36;56
79;43;32;52
79;47;32;52
71;63;20;44
77;55;24;52
75;63;24;40
70;63;24;44
77;55;32;52
79;47;32;56
79;32;40;64
77;63;32;52
77;63;36;64
87;55;36;64
87;63;40;64
85;63;40;68
91;63;48;72
87;40;64;84
79;40;64;86
95;44;64;93
79;64;80;95
79;48;64;88
95;55;64;80
95;75;48;72
93;79;44;48
76;95;40;64
84;95;42;64
87;79;36;64
84;79;36;48
78;79;32;64
87;36;44;66
87;55;32;64
79;55;32;52
79;47;32;56
79;38;40;52
79;32;36;66
63;20;52;63
63;24;40;75
55;32;56;69
63;24;40;71
55;24;52;64
79;24;32;68
63;32;52;66
79;24;44;68
79;32;48;68
79;36;44;79
79;32;64;76
91;40;48;78
79;36;64;82
87;63;48;72
93;63;48;72
95;63;48;72
95;79;48;68
95;79;40;76
95;63;64;82
95;58;64;92
87;48;68;94
95;48;64;93
87;48;68;95
87;48;68;95
63;48;80;93
87;40;64;87
79;40;68;86
87;36;64;86
87;40;64;76
91;55;48;64
87;40;48;68
87;55;40;72
79;44;40;64
79;36;32;64
79;63;32;52
64;79;28;48
68;79;24;44
79;63;24;48
79;28;44;68
79;34;36;64
79;39;40;68
79;47;36;64
87;47;48;64
87;55;32;64
87;63;40;64
87;55;44;70
91;63;52;78
95;40;64;92
63;48;76;87
63;52;72;95
49;64;94;95
63;64;80;95
50;68;95;87
48;76;103;63
48;80;95;95
52;72;95;79
48;76;95;79
48;68;94;79
62;64;92;95
79;48;72;95
40;68;95;79
40;68;95;46
52;81;95;38
52;79;79;32
56;79;79;32
64;87;40;48
79;63;32;52
79;63;32;56
79;47;36;64
79;63;32;64
73;63;32;48
74;79;32;64
79;47;40;76
63;36;56;79
47;48;76;79
47;48;76;79
32;64;95;32
56;86;79;40
64;91;79;36
64;87;79;40
72;95;61;64
89;87;44;64
84;79;44;72
95;63;52;80
95;50;64;64
91;79;40;72
86;79;44;48
80;87;46;64
80;79;40;64
82;79;36;64
95;63;48;72
87;53;48;78
87;38;64;79
79;36;64;87
55;32;64;79
79;32;48;74
79;38;52;72
79;39;36;64
79;37;48;68
79;47;32;64
63;24;48;64
79;30;36;64
63;32;56;79
63;32;56;79
47;44;72;79
63;32;52;78
63;32;64;79
79;32;64;79
55;52;79;87
63;40;64;87
59;48;74;87
63;48;72;87
42;64;92;79
40;64;93;63
40;76;95;59
48;84;95;48
64;95;71;48
74;95;63;52
76;95;79;40
76;95;55;64
80;95;52;64
84;95;46;64
84;95;52;48
80;95;46;64
93;63;48;76
91;63;40;72
95;59;48;68
93;63;36;64
95;42;48;76
87;32;48;74
79;32;64;79
63;40;64;87
47;48;68;79
63;40;64;79
63;36;64;79
79;32;48;76
79;28;40;70
79;39;36;64
79;36;36;66
79;32;40;71
63;32;52;77
71;32;48;79
63;36;70;79
79;36;64;87
79;40;64;82
95;42;64;87
79;40;64;87
87;40;64;95
87;44;64;87
95;44;64;95
79;48;76;103
63;64;84;95
79;52;82;103
60;64;84;95
52;64;82;95
55;68;95;63
48;72;95;71
48;80;95;50
48;80;95;63
40;76;95;40
52;86;79;32
64;87;63;40
72;79;42;48
68;87;47;48
76;79;34;44
72;79;32;52
74;63;32;48
66;63;20;44
71;63;32;56
79;39;32;64
79;32;48;70
79;47;32;64
79;28;56;79
63;32;56;79
63;40;64;87
32;64;87;43
48;85;63;32
64;87;63;40
78;79;36;48
78;87;36;64
87;63;40;64
87;79;40;72
93;71;44;68
95;79;40;76
84;87;40;64
87;79;44;64
86;95;52;64
87;95;48;64
78;95;71;48
76;95;62;64
80;95;47;64
87;87;46;64
80;79;36;64
87;63;40;68
87;36;52;64
87;63;32;64
87;39;52;68
79;55;32;64
79;39;40;64
79;39;32;64
79;30;40;64
79;55;32;52
79;37;40;40
64;63;22;40
71;63;32;56
64;63;26;44
71;63;24;36
66;63;24;52
79;47;32;56
74;63;32;56
68;79;34;40
64;87;45;48
68;87;47;44
72;87;32;64
87;71;40;74
79;59;40;64
85;79;40;64
87;79;44;64
84;87;40;64
91;79;40;68
95;55;48;68
93;79;48;72
95;63;48;64
91;63;40;64
87;79;40;68
85;63;40;64
87;63;36;64
83;63;32;64
79;47;40;64
79;43;36;68
74;63;32;44
70;63;24;48
70;63;24;40
71;55;20;48
75;55;24;48
70;63;24;48
79;47;32;54
70;63;32;48
74;63;32;48
71;63;32;52
75;55;32;64
79;32;48;76
79;32;64;72
79;41;40;72
79;36;52;87
61;44;72;87
42;64;87;95
79;52;76;95
63;64;82;95
63;64;82;95
48;76;95;55
68;95;77;64
95;79;48;64
87;95;52;68
95;59;64;76
103;55;64;84
95;48;64;87
95;46;52;84
95;50;64;78
95;63;48;78
95;55;48;72
87;63;40;64
84;63;40;64
79;63;32;64
79;63;32;56
79;63;32;64
79;47;36;64
79;55;32;64
63;32;44;64
79;28;36;68
79;28;40;60
79;55;32;56
79;47;36;64
79;35;36;74
79;32;56;77
79;32;48;70
79;32;56;79
79;32;64;85
63;40;64;79
63;40;64;87
79;40;64;91
63;48;76;87
79;44;72;87
95;46;48;76
95;71;64;80
95;60;48;86
95;44;64;76
95;79;44;72
95;71;48;76
93;71;48;72
95;59;52;72
78;79;36;64
87;63;36;72
87;32;52;79
61;36;68;79
32;52;68;79
32;56;79;79
55;40;70;79
32;52;70;63
32;64;87;32
44;78;63;30
32;70;63;28
40;75;63;20
44;77;63;32
52;79;47;32
48;79;55;32
70;63;32;48
79;32;48;79
63;32;64;79
87;46;48;76
79;32;64;85
79;36;64;87
87;40;68;93
55;52;78;79
40;68;95;55
64;88;79;48
72;95;61;64
76;95;44;64
95;71;64;95
87;48;68;95
79;64;84;95
95;48;68;90
95;54;64;80
95;61;48;78
95;63;48;64
84;71;40;64
82;79;38;40
64;87;36;52
79;63;32;52
64;79;32;44
64;79;24;36
52;79;24;44
64;79;24;48
79;39;32;60
63;32;52;79
45;32;56;79
39;36;69;63
28;48;79;45
32;64;79;55
32;56;79;55
32;64;79;63
32;64;87;36
64;87;63;36
52;79;79;32
64;87;42;48
76;87;46;52
95;61;48;72
87;79;44;68
95;71;48;68
95;79;48;76
95;44;68;76
93;79;48;76
95;63;52;68
84;95;44;64
78;95;48;64
95;63;44;68
87;71;48;76
86;79;36;64
68;87;40;52
78;79;36;48
68;79;32;32
64;79;47;36
64;79;47;32
64;79;39;48
68;79;32;64
79;55;32;64
79;32;64;79
79;32;48;79
33;48;76;63
28;48;70;63
47;32;56;78
63;32;56;79
32;48;72;79
63;32;52;79
63;32;64;68
79;41;48;78
79;32;52;64
71;79;32;56
85;63;48;64
91;55;40;72
79;40;68;87
79;40;64;87
79;40;64;86
95;46;64;76
93;79;64;72
95;63;48;68
95;46;64;84
95;61;64;88
95;48;64;84
95;40;64;84
63;48;78;95
79;40;64;95
44;52;72;87
47;48;76;79
63;40;64;79
79;32;64;87
36;48;68;79
47;40;70;79
32;64;79;63
36;68;79;32
36;72;63;24
52;79;46;36
60;79;63;32
40;74;63;32
48;79;43;32
56;79;34;44
70;79;36;44
64;79;43;40
64;79;32;48
68;79;32;48
68;79;32;48
79;63;32;56
79;63;40;64
87;63;40;70
87;63;36;76
95;46;52;80
95;50;48;72
95;63;48;80
95;40;68;78
95;46;64;86
95;48;64;76
95;55;48;76
95;59;48;68
87;71;48;76
95;61;44;68
95;47;48;72
87;47;48;64
77;79;32;64
87;63;40;64
79;63;32;64
79;59;32;48
79;59;32;64
79;47;36;56
71;63;32;56
75;63;32;40
74;63;32;52
75;47;32;48
68;63;24;44
75;63;32;52
71;63;24;52
77;63;32;52
72;63;32;52
77;63;32;48
70;79;32;52
64;79;47;32
64;87;63;48
76;79;36;64
76;79;32;64
82;79;36;64
72;95;40;64
72;95;36;52
84;87;48;64
84;87;44;64
84;79;40;72
95;63;44;72
90;71;40;64
84;79;40;64
87;71;36;64
91;55;48;68
84;63;32;64
76;79;32;64
87;34;48;72
79;34;48;74
79;39;40;64
79;43;36;64
79;55;32;64
79;33;44;71
79;39;36;66
79;28;48;64
79;32;32;68
79;32;48;70
79;32;44;76
79;32;64;70
87;63;40;64
87;47;40;64
87;55;40;76
87;32;64;64
91;55;40;76
87;44;48;72
95;55;44;68
87;79;40;64
82;79;42;64
80;87;44;64
88;87;44;64
82;95;48;64
72;95;63;52
84;95;48;64
80;95;50;64
84;95;55;48
