## File generated by myo_cap software 
## Available from github.com/ddantas/myo_cap 
## Timestamp: 2020-04-30_23-20-07 
##  
## EMG capture settings 
##  
# sampleRate: 2000 
# channelsPerBoard: 4 
# nBoards: 1 
# bitsPerSample: 12 
# ch0;ch1;ch2;ch3
319;262;240;239
239;168;176;164
152;159;143;109
88;100;127;127
86;96;116;127
84;88;127;127
116;100;96;108
119;127;127;127
127;127;84;96
127;103;111;111
95;80;88;114
127;127;114;116
127;95;76;80
112;79;72;100
111;64;84;108
111;64;92;111
111;87;64;80
100;111;79;64
72;108;95;66
64;72;68;80
111;79;79;68
64;84;111;95
111;96;96;92
104;68;64;94
106;111;100;111
95;68;96;106
111;103;74;72
106;111;119;111
111;72;80;118
116;111;110;124
127;127;103;88
72;88;98;104
117;111;123;123
120;127;76;96
114;127;111;123
127;102;80;80
84;96;108;123
119;87;72;72
100;118;111;93
72;80;127;111
119;127;96;88
96;104;127;79
72;100;119;103
68;72;96;96
111;111;111;111
108;111;119;119
79;80;84;88
88;111;95;64
80;102;111;95
72;72;104;111
119;123;127;111
72;124;127;127
111;111;103;80
88;104;127;127
127;127;103;80
108;122;95;88
116;93;80;104
127;64;116;103
79;72;100;111
95;64;92;111
111;111;111;87
68;88;119;87
64;88;111;78
64;80;111;111
111;111;111;111
78;80;100;114
118;108;110;96
84;84;92;92
88;111;95;72
64;72;80;106
111;110;96;96
110;95;68;64
98;111;91;64
80;98;92;84
109;91;64;72
111;75;64;92
111;95;64;84
110;95;74;64
64;76;76;82
90;95;79;95
77;70;64;108
111;64;76;111
95;64;72;84
111;79;64;88
111;56;64;80
111;54;64;110
95;52;64;84
103;79;64;76
111;56;64;84
95;107;95;78
64;68;98;111
111;64;72;88
84;111;95;64
80;94;98;111
111;95;95;64
80;108;96;88
80;88;94;111
111;70;64;80
111;71;64;64
100;62;52;64
92;95;90;102
111;70;64;72
106;95;64;64
84;111;87;64
72;111;87;64
64;76;80;88
107;95;111;95
64;110;111;100
88;90;92;110
111;100;88;80
68;72;68;88
103;48;84;95
111;95;95;95
95;64;84;96
111;111;111;91
68;64;110;111
95;111;96;88
110;111;87;64
80;88;111;79
64;96;95;66
68;88;111;95
87;64;98;111
95;64;84;88
96;111;111;77
64;72;102;111
64;72;106;111
64;96;111;79
64;84;111;64
72;96;110;111
95;72;64;80
106;111;111;119
111;102;80;72
84;100;100;106
111;87;64;100
111;64;72;96
111;64;84;106
111;111;111;79
64;88;111;95
95;79;64;80
96;111;95;79
68;80;111;111
118;111;95;72
68;84;110;95
64;84;111;111
111;119;110;100
88;76;80;96
111;64;72;92
111;111;111;111
79;72;96;119
111;64;88;96
111;111;111;123
127;91;80;114
111;68;88;116
127;68;84;96
111;72;68;88
111;87;64;72
110;95;64;72
111;64;76;111
79;68;92;100
111;56;100;95
95;79;64;68
92;107;111;95
64;64;76;107
79;64;88;111
95;70;64;72
102;95;108;102
119;79;64;96
100;108;100;88
80;90;80;80
84;94;111;103
111;95;79;64
72;88;111;75
64;108;95;77
64;72;80;102
95;64;64;76
94;103;111;71
64;80;111;111
100;111;75;64
92;111;111;78
64;80;106;111
95;64;88;110
111;64;96;103
78;64;74;64
88;111;95;71
64;111;79;64
64;88;106;100
88;94;94;96
104;103;111;95
93;79;94;79
72;80;100;110
110;111;108;118
119;111;111;68
96;127;64;96
104;111;119;118
110;119;119;119
127;68;88;119
127;111;127;95
80;100;122;127
122;116;126;127
127;76;96;124
127;127;111;95
80;96;127;78
80;88;100;119
111;64;88;110
118;95;64;96
119;64;80;119
79;64;88;108
111;78;64;80
96;111;95;95
64;72;88;96
111;79;64;72
111;52;80;111
95;64;64;84
98;111;71;64
88;94;111;95
64;72;111;60
76;111;87;87
95;64;72;88
108;108;102;96
110;87;64;96
111;110;111;119
119;119;123;127
119;80;80;100
127;95;87;83
68;96;119;111
74;64;80;111
64;64;80;94
98;111;79;64
76;100;95;95
87;64;80;111
111;95;111;119
119;127;111;76
88;114;119;111
95;94;91;72
96;127;85;80
123;68;80;110
119;111;100;102
119;64;96;123
68;76;88;106
111;76;64;64
84;95;56;64
100;79;64;84
107;95;71;64
80;94;76;76
76;92;111;60
52;64;103;102
92;103;111;79
68;110;95;70
72;92;106;111
111;87;64;76
102;79;64;90
111;56;84;111
95;68;64;92
79;68;107;95
95;66;64;76
94;76;64;64
94;79;48;64
103;40;76;94
95;103;95;94
100;92;72;80
76;76;90;94
103;79;52;64
92;95;75;48
68;84;95;95
103;107;96;98
111;75;64;80
110;95;64;80
110;56;84;110
111;100;72;72
111;48;76;103
95;52;64;92
103;107;95;64
72;96;111;103
111;64;72;96
102;102;104;111
111;71;64;80
111;64;80;92
106;95;79;64
84;111;103;91
68;64;88;111
79;79;64;76
96;111;109;98
80;76;84;110
111;100;72;72
80;111;64;64
92;107;98;88
68;111;87;64
64;76;72;92
103;94;72;76
92;103;111;56
72;111;79;64
84;107;102;94
88;102;111;103
64;68;86;84
80;88;100;95
76;64;64;95
87;52;72;103
95;71;48;72
80;86;94;102
95;66;64;68
76;103;95;79
56;72;84;88
88;103;111;95
74;79;64;72
80;95;95;80
72;64;64;72
86;79;61;44
68;63;40;64
86;75;40;64
95;44;64;95
52;48;64;76
78;64;44;46
36;48;64;64
64;64;64;95
79;63;54;48
72;86;90;90
95;95;95;100
111;48;84;111
79;64;84;107
111;111;106;119
95;64;88;111
95;64;80;119
87;64;72;100
79;64;84;106
111;79;79;64
92;71;72;106
95;71;64;64
103;50;76;103
111;71;56;64
108;63;72;92
100;95;79;56
64;72;84;103
111;79;64;88
111;48;84;111
95;56;72;76
88;111;66;52
80;95;71;62
52;76;103;95
64;64;84;94
80;72;76;88
95;95;95;111
111;95;103;64
88;111;87;64
96;111;79;64
100;111;111;119
127;95;111;127
110;88;88;104
127;74;84;118
119;122;127;127
78;96;100;108
127;76;80;100
111;64;96;110
110;117;118;119
116;119;116;122
127;124;122;118
116;123;108;118
108;110;127;121
108;116;106;104
108;114;104;104
96;123;119;127
108;100;96;100
111;127;127;127
111;90;80;127
127;111;72;96
122;76;96;96
92;88;96;111
111;95;64;80
104;111;64;88
111;111;111;116
110;127;111;91
80;96;123;79
84;117;108;111
123;111;79;72
116;64;104;119
119;118;100;92
106;64;76;96
111;111;111;119
93;88;116;119
127;127;127;127
127;94;96;127
127;84;80;80
88;104;123;119
116;108;122;103
72;110;126;127
127;111;94;87
80;100;88;88
88;88;84;88
109;111;102;96
111;111;111;68
72;88;104;100
98;111;111;106
111;119;111;127
127;127;127;127
127;84;80;96
96;126;111;78
88;104;80;80
110;111;66;72
84;111;70;68
111;79;64;72
88;95;64;88
111;87;64;64
90;95;56;64
80;107;79;52
80;95;48;88
95;79;52;72
111;48;84;111
87;54;64;72
76;107;79;52
64;64;95;79
48;44;64;95
95;95;111;110
111;75;64;84
110;111;111;95
79;72;92;100
111;111;95;64
80;111;111;79
76;111;75;64
88;111;79;64
110;111;87;68
111;95;95;79
64;68;92;104
111;64;72;98
111;76;64;84
106;79;64;64
90;95;71;56
76;95;64;76
80;107;71;48
80;95;48;64
103;95;75;58
68;102;95;111
111;95;111;118
111;123;110;108
108;84;76;80
98;111;71;88
119;75;72;111
95;64;100;111
70;80;104;111
111;64;96;100
88;76;100;111
111;64;80;111
111;68;64;88
111;60;76;98
100;111;95;79
64;64;72;111
95;71;64;64
94;95;64;88
107;111;95;64
72;64;64;76
103;79;56;64
95;44;88;79
48;68;76;80
95;95;79;48
90;103;107;109
111;95;111;95
76;119;68;80
127;64;96;111
87;64;68;96
111;64;88;95
64;111;95;64
84;95;64;92
111;103;79;64
84;111;111;111
64;80;88;111
111;68;80;96
109;111;111;111
74;72;104;111
119;119;114;110
114;111;95;68
100;103;86;68
96;111;64;80
111;111;64;72
96;77;72;103
95;64;96;95
64;80;88;106
111;103;64;64
82;95;56;64
102;111;79;64
80;111;95;87
64;72;111;111
111;79;72;119
111;102;88;88
84;100;111;95
64;76;98;87
64;72;64;52
72;111;79;64
106;52;72;88
105;88;80;88
92;111;111;95
76;68;102;111
70;64;64;80
103;111;95;64
76;84;80;92
107;108;107;111
108;96;80;72
80;80;90;102
110;111;111;87
64;88;111;73
64;80;88;88
94;103;111;111
95;66;80;100
111;111;119;87
64;80;108;111
111;111;76;68
80;119;95;64
104;111;87;64
84;111;79;64
88;111;111;111
119;64;76;80
92;111;95;64
96;71;72;106
95;111;92;76
80;94;84;111
87;64;72;100
111;111;64;80
111;84;64;76
98;95;64;72
92;111;79;64
94;95;64;72
102;111;87;64
64;68;64;76
95;80;86;72
88;95;48;64
103;79;48;64
111;56;52;64
84;95;87;79
71;56;64;86
107;95;111;111
79;64;84;111
79;68;96;111
111;111;87;78
70;84;106;102
104;95;68;88
104;96;84;80
92;79;64;72
100;111;95;74
64;84;80;92
108;95;64;64
106;71;72;88
88;98;102;102
110;95;80;111
111;88;84;108
111;79;72;88
111;109;88;104
111;64;64;92
111;111;111;79
72;64;80;102
111;111;95;64
96;95;72;111
119;87;79;64
88;95;64;82
111;95;68;64
110;64;72;80
94;80;80;111
60;64;80;111
79;64;94;109
111;56;80;88
100;103;92;92
107;95;64;84
111;111;77;64
80;102;100;111
95;64;88;110
111;111;108;108
96;92;80;100
111;70;64;88
111;95;64;76
111;52;84;107
95;111;111;111
108;127;111;85
72;127;103;68
84;127;87;68
80;119;111;79
80;111;80;110
119;95;64;92
106;95;64;80
88;110;111;66
72;111;75;64
90;110;107;92
96;111;79;64
88;103;64;80
111;64;80;108
91;64;84;110
95;64;92;111
111;111;111;118
116;127;127;127
127;127;111;95
80;96;96;126
127;95;76;96
100;127;95;72
80;110;111;74
72;119;111;111
79;72;88;104
111;111;68;108
95;64;88;111
76;64;72;111
95;73;72;92
106;111;76;64
64;84;103;92
96;79;72;111
87;64;64;98
107;79;64;84
100;92;92;103
88;100;94;86
72;64;76;88
90;95;62;64
94;103;111;107
111;87;72;106
111;111;119;119
100;108;108;100
104;119;119;119
127;111;76;80
104;114;119;111
95;91;87;72
92;96;88;96
118;66;80;100
111;111;79;64
98;111;95;64
88;92;100;111
87;76;111;95
64;111;95;64
111;95;70;64
84;110;111;111
119;119;111;95
76;84;111;111
68;80;92;102
100;111;79;64
84;95;64;80
107;111;111;95
70;72;80;102
111;70;64;84
111;71;64;64
80;111;79;66
64;64;68;76
78;74;82;64
64;78;86;86
95;79;71;48
92;79;64;92
103;107;95;79
64;64;72;80
103;111;111;95
64;64;64;72
111;62;64;110
87;64;94;111
111;111;87;64
80;119;79;64
92;96;111;111
111;79;72;96
119;111;119;100
92;108;111;64
114;111;111;127
95;72;76;88
106;108;127;76
80;119;78;80
96;88;72;76
88;111;95;64
64;92;110;111
111;95;72;119
95;68;80;92
111;79;72;88
95;52;84;111
103;79;79;79
64;98;108;100
111;111;111;74
76;123;95;68
88;119;73;84
104;111;119;111
95;72;80;96
111;111;72;64
84;95;64;92
95;64;72;88
100;79;64;100
110;111;111;78
64;98;111;111
79;64;80;104
110;95;68;88
111;111;111;111
111;68;72;80
96;96;111;111
111;76;64;76
106;111;111;74
72;127;64;96
119;111;76;68
96;95;64;80
111;79;64;88
111;95;64;64
88;88;111;79
64;68;80;84
84;111;95;56
72;98;95;71
56;84;111;111
111;79;64;68
84;100;107;104
100;111;64;84
119;95;91;64
76;96;111;111
68;88;111;111
95;70;72;104
96;76;64;79
87;75;64;68
92;111;111;111
111;123;95;68
80;111;64;104
111;74;72;106
111;64;64;84
111;68;64;76
111;79;64;64
80;111;56;72
88;94;111;95
64;80;110;108
96;111;111;104
108;111;111;103
68;96;127;85
72;72;68;64
96;111;111;111
111;95;64;98
123;87;68;72
111;95;64;80
108;111;119;111
102;119;64;88
111;111;119;119
119;127;127;111
80;96;127;127
127;80;88;108
127;107;72;76
72;100;127;68
96;119;111;119
127;111;76;88
118;127;127;127
119;95;96;108
120;122;124;124
118;111;80;104
127;127;111;95
80;124;127;111
80;80;127;126
118;127;95;80
84;100;108;88
76;64;72;103
111;79;64;84
111;79;64;80
102;92;90;111
111;91;64;80
106;108;108;111
96;100;108;111
119;111;111;95
68;127;64;84
116;108;104;111
95;74;68;68
100;111;111;111
119;127;86;80
104;127;111;87
79;72;76;72
84;102;111;111
111;111;111;111
119;111;90;80
118;127;95;80
104;96;84;92
108;103;87;68
64;80;88;111
111;111;100;84
84;111;95;64
102;95;68;64
88;111;111;102
84;88;92;104
110;111;111;68
84;119;64;72
100;111;95;64
68;111;79;64
88;106;111;111
111;87;68;80
110;66;68;98
111;93;87;87
64;96;111;110
88;84;88;100
111;111;95;68
76;102;111;95
72;72;96;111
95;64;80;111
111;111;103;64
88;119;68;64
72;84;111;79
69;75;77;64
64;80;107;111
91;64;68;100
87;64;84;84
76;95;95;71
52;68;100;63
64;80;103;103
94;84;92;111
79;64;80;84
82;68;82;95
79;56;52;64
94;103;95;69
72;111;87;95
95;95;66;76
110;111;68;64
92;98;111;79
64;92;111;79
72;111;111;103
86;64;72;100
111;68;94;103
88;119;64;64
80;76;88;95
68;64;52;64
76;64;68;64
95;63;40;64
88;95;95;103
95;111;95;95
64;84;111;95
64;64;64;96
111;94;90;92
111;77;64;82
90;111;95;111
111;111;119;127
126;108;92;88
80;96;111;111
95;68;76;80
72;94;111;70
64;84;110;87
64;76;94;95
75;64;64;64
100;111;64;64
106;95;87;64
84;95;64;80
88;109;107;111
88;100;111;95
79;68;72;92
108;111;87;64
80;88;106;111
111;111;76;80
111;119;119;111
72;76;111;96
72;64;84;111
111;79;64;80
111;95;95;70
72;111;64;64
88;80;68;72
111;60;52;64
88;95;95;74
64;64;76;95
95;52;88;95
95;70;64;76
88;100;110;79
64;92;100;111
69;64;80;103
111;70;64;80
111;111;88;80
80;92;106;95
95;79;64;64
88;95;64;64
96;95;75;56
72;111;60;64
64;52;64;92
95;79;87;79
70;80;111;95
74;64;64;64
80;103;95;56
68;111;95;56
84;111;103;100
104;79;72;106
111;70;64;72
92;111;71;64
88;111;79;64
64;88;111;95
70;80;111;87
64;108;95;64
92;111;70;80
98;111;87;64
76;84;102;96
111;95;64;80
106;111;95;87
80;111;119;111
95;76;64;72
119;95;87;64
80;84;100;94
102;111;66;64
100;111;95;64
100;111;79;68
92;108;106;88
88;111;95;87
64;92;111;111
87;72;76;80
96;110;111;111
119;119;127;111
103;80;126;111
72;100;106;108
116;123;116;100
116;111;72;92
100;118;117;119
126;111;72;84
118;127;111;107
95;84;76;84
114;96;88;104
111;123;111;111
127;103;82;72
108;119;111;111
103;76;80;88
116;111;72;100
100;111;106;96
102;119;95;85
72;104;111;95
74;72;64;64
96;108;108;110
106;108;111;119
95;72;104;111
103;119;127;114
88;80;84;100
111;64;80;84
76;72;72;64
84;95;95;95
88;111;95;64
64;98;95;64
88;100;80;68
72;94;95;95
71;64;80;111
56;80;111;111
111;100;96;118
111;95;87;64
96;111;111;119
104;100;108;119
111;119;95;87
88;127;68;84
126;95;72;108
111;111;87;80
114;87;64;68
92;106;102;106
119;64;80;100
95;64;80;102
111;68;72;111
95;103;108;92
96;111;95;79
64;84;108;111
68;72;88;100
106;109;103;96
106;95;64;92
110;111;64;72
98;103;96;84
96;95;91;95
91;95;87;64
88;111;95;74
80;108;111;111
74;88;111;111
111;103;78;72
104;95;70;68
88;106;111;111
79;84;119;79
68;64;68;88
106;111;111;111
119;119;111;119
84;88;114;127
127;76;80;96
100;119;111;64
100;111;64;80
108;111;119;87
64;84;111;95
64;119;74;64
92;69;64;100
111;95;64;64
88;102;95;95
64;88;95;56
80;111;95;79
64;100;68;64
84;111;111;111
100;96;106;111
111;119;111;111
94;72;88;111
126;95;68;106
111;119;118;126
127;127;111;80
96;127;95;80
104;127;78;88
110;127;119;127
111;90;96;127
78;80;96;104
116;111;86;72
110;111;111;86
72;104;110;127
78;88;119;119
127;127;127;95
80;127;72;80
96;127;111;95
76;80;84;108
103;70;72;80
98;111;74;64
80;111;111;95
64;92;111;111
119;111;79;80
104;119;100;96
106;119;119;83
68;88;106;96
100;100;92;111
87;64;88;103
111;66;64;72
110;111;95;79
64;72;90;102
111;107;88;88
110;87;64;72
111;95;111;111
111;127;127;126
124;126;127;127
127;111;80;104
127;95;84;76
88;119;103;74
68;108;95;79
64;76;92;111
111;111;111;87
80;122;87;72
110;119;111;111
119;111;94;91
72;96;119;111
76;88;111;119
111;111;123;110
100;118;127;127
111;80;106;124
127;86;76;96
127;103;127;127
127;111;103;80
108;127;95;72
108;127;111;82
80;116;111;72
118;111;72;88
111;119;119;127
127;110;104;124
119;90;72;100
118;126;110;100
114;126;127;87
76;96;124;119
112;96;104;110
111;119;127;111
90;80;104;116
127;110;88;106
127;127;78;76
100;119;87;64
92;118;111;72
88;127;95;94
76;84;119;79
74;68;64;80
111;111;106;108
119;91;95;111
111;111;119;95
80;96;116;124
127;125;122;127
118;127;111;80
100;127;127;127
127;80;104;127
126;112;127;127
107;94;88;104
122;127;127;127
127;127;143;127
127;127;119;111
119;103;80;96
118;111;89;74
88;108;110;96
80;96;108;119
111;72;80;108
119;111;96;84
104;111;111;79
80;127;76;64
88;119;95;64
88;111;111;110
102;96;88;111
111;111;111;125
111;68;96;108
126;83;64;68
100;111;95;95
85;83;103;111
119;94;72;88
114;119;111;72
108;111;103;84
84;119;79;72
96;119;87;64
92;110;111;111
119;127;127;95
72;110;119;95
72;80;100;111
111;68;80;100
111;106;88;96
111;111;96;88
84;88;90;110
95;79;64;72
111;102;84;68
64;84;95;95
102;111;95;95
64;84;111;79
64;72;84;103
111;79;66;64
90;106;111;111
79;72;96;111
95;70;64;72
80;88;76;64
64;72;90;95
54;64;78;95
95;80;68;68
103;79;79;48
68;111;56;64
103;48;64;72
92;95;92;84
92;95;76;94
103;111;95;103
111;111;119;119
87;88;104;119
126;123;122;110
96;108;127;119
74;96;123;119
108;127;127;127
111;80;104;123
127;119;84;96
127;119;104;84
84;84;88;102
110;111;92;72
90;111;71;64
92;107;88;80
80;111;68;64
84;109;95;71
64;76;88;90
80;82;95;95
56;64;76;94
103;95;76;64
72;111;56;72
92;103;103;95
87;79;64;80
111;111;111;119
126;93;72;84
96;108;100;111
111;64;108;111
95;80;123;95
68;64;68;76
110;64;72;102
95;71;52;72
102;95;64;64
94;111;111;95
68;76;111;111
111;64;72;92
111;64;64;72
92;111;95;79
80;111;96;88
96;111;111;66
80;88;96;111
77;72;100;106
108;111;119;74
68;88;100;102
84;82;84;102
111;79;64;80
110;109;100;109
111;95;111;78
64;96;87;64
98;95;87;64
80;111;108;100
119;86;64;68
108;103;111;91
64;68;80;108
95;78;87;68
72;88;110;104
106;88;72;80
102;111;111;111
111;111;127;127
112;96;104;127
86;80;108;119
119;127;111;103
80;80;96;119
126;127;122;104
96;104;127;111
111;103;95;87
80;104;127;111
91;76;80;92
100;96;119;95
64;72;104;111
95;64;96;106
108;88;88;102
100;96;98;111
111;64;72;88
111;103;111;106
102;108;111;116
111;118;127;107
72;96;127;79
84;111;119;126
127;123;127;127
111;96;124;127
127;95;80;84
104;119;111;68
96;127;111;111
111;72;96;127
127;100;80;95
111;72;80;110
119;111;91;72
80;100;111;79
64;72;96;106
100;88;88;94
111;75;64;80
111;70;64;94
95;75;64;80
106;71;64;80
111;48;64;103
95;52;68;88
102;111;111;111
87;64;88;111
95;64;104;111
111;64;88;110
111;96;96;111
111;68;64;88
111;95;79;72
119;64;92;109
111;95;64;80
111;107;111;108
80;88;111;95
64;80;111;75
80;94;102;100
84;82;100;111
111;95;64;80
108;111;111;119
103;77;76;116
74;80;119;95
64;84;102;106
111;108;110;117
116;119;119;124
124;123;108;96
96;114;127;119
95;72;108;123
127;111;80;100
100;110;106;127
127;111;103;95
80;100;127;103
78;76;72;64
98;111;119;111
85;80;108;111
119;111;111;76
80;88;88;84
92;103;92;72
76;80;76;90
95;64;111;70
64;80;111;95
64;80;111;64
64;90;111;95
64;88;87;64
80;111;56;72
98;95;64;56
64;64;64;74
95;79;95;76
64;68;95;61
64;95;95;109
95;64;92;95
64;72;88;94
111;68;64;64
72;84;80;80
90;95;69;52
64;86;78;68
84;95;95;95
95;71;64;80
109;95;64;64
84;88;76;84
103;95;79;64
64;80;102;95
70;64;84;103
111;103;111;119
111;64;80;88
119;64;84;111
111;111;95;68
106;111;119;123
103;76;72;84
108;78;64;80
88;111;110;111
111;64;80;98
111;95;64;80
96;103;80;72
72;92;111;71
64;80;103;109
111;68;72;102
106;102;80;80
106;95;68;64
90;109;88;92
92;111;111;87
66;72;102;95
64;84;111;64
84;111;111;111
102;119;95;74
68;80;111;76
72;96;111;95
64;80;111;111
103;111;119;119
119;104;96;119
116;118;124;127
76;96;127;111
76;88;110;119
95;96;119;83
80;100;111;111
127;68;80;88
110;111;111;111
111;72;80;111
119;64;104;111
68;80;103;64
80;111;95;64
88;100;80;68
88;95;79;79
52;80;100;111
75;64;64;92
111;64;84;111
95;111;104;88
96;111;108;110
119;119;111;74
96;111;119;119
110;119;127;119
111;72;96;119
126;127;127;103
76;96;127;127
127;72;104;118
124;111;84;80
88;88;88;96
111;77;72;100
108;96;100;92
88;96;104;111
95;64;68;96
111;111;111;111
111;95;76;80
111;68;72;84
111;103;79;64
92;111;111;111
95;103;86;72
100;111;96;118
111;119;95;91
72;88;119;111
78;80;119;119
95;64;80;96
96;108;111;119
111;72;119;111
68;96;111;72
72;96;92;96
111;111;111;91
64;84;108;111
95;95;95;107
95;68;84;106
119;119;114;114
127;103;103;86
76;72;84;100
119;111;100;104
119;123;108;108
127;95;68;72
100;111;95;86
72;96;100;108
102;106;119;79
64;88;102;111
111;68;64;84
110;111;111;119
111;119;114;96
96;92;96;96
111;111;64;64
88;98;104;111
111;111;87;68
76;100;111;75
64;80;92;111
87;64;111;58
88;95;95;70
64;84;111;79
64;96;109;84
64;68;102;95
79;95;95;95
64;88;100;111
95;76;64;98
111;111;111;78
72;118;95;68
96;102;88;96
88;84;103;111
64;80;111;95
64;64;88;111
111;111;111;95
91;95;111;111
72;88;126;95
72;108;111;76
68;80;100;111
111;111;111;108
104;88;80;72
64;88;102;103
98;102;96;88
80;96;95;103
111;64;92;111
95;93;103;64
96;111;119;111
108;119;127;127
103;88;127;95
80;106;127;72
96;123;111;111
76;84;119;111
79;68;88;88
100;111;95;64
84;100;90;80
80;96;102;95
107;71;64;92
98;92;80;84
84;94;107;111
78;64;100;111
111;64;104;119
95;95;93;68
88;111;119;119
127;119;112;104
96;96;110;110
100;111;88;88
80;80;72;76
80;103;111;103
111;95;64;72
100;103;102;111
111;110;88;100
111;110;102;96
92;96;92;110
111;111;110;110
100;96;80;72
96;94;111;111
91;64;100;111
111;111;111;96
72;72;88;100
110;111;111;111
96;76;76;92
107;111;79;64
88;106;111;64
88;111;64;80
111;71;64;92
111;79;64;84
108;95;95;79
64;92;111;111
111;68;118;119
111;123;127;126
120;104;80;80
100;119;95;68
98;119;111;110
127;127;127;114
106;104;96;88
114;103;84;76
72;88;111;111
111;64;76;92
119;64;84;111
71;64;88;84
94;111;111;111
95;111;96;72
80;80;72;68
84;107;95;52
76;102;111;111
95;111;111;111
123;68;96;127
72;88;119;95
64;90;119;111
91;72;68;64
88;94;92;111
111;79;72;111
111;64;96;111
87;95;111;96
84;92;84;94
106;106;111;78
72;96;111;111
111;95;64;64
76;80;64;52
68;94;95;52
64;95;109;79
64;72;76;80
76;78;64;64
68;86;82;86
84;95;94;95
92;72;52;48
80;95;90;88
72;76;86;82
88;95;80;84
88;95;80;64
72;84;76;95
95;48;72;95
48;72;90;95
95;95;95;68
64;94;109;95
56;72;84;100
111;79;64;80
84;90;94;95
98;92;76;76
88;103;103;111
95;64;94;111
103;110;100;104
111;91;64;68
104;111;87;64
80;100;84;92
92;96;102;84
72;72;68;80
80;95;95;103
100;76;74;95
103;104;106;111
95;64;80;111
95;95;64;84
98;111;111;87
80;111;110;108
127;64;96;119
94;95;95;79
72;80;104;104
108;88;80;72
92;50;88;111
111;106;111;103
64;84;111;111
119;106;88;84
104;111;95;64
104;95;64;80
96;111;111;119
111;119;116;96
80;84;80;84
76;102;111;98
100;95;64;100
110;100;108;111
95;72;111;103
64;84;111;111
86;72;106;92
72;72;88;111
71;64;98;111
64;96;95;64
68;72;68;102
95;95;95;64
64;80;80;90
76;80;94;103
71;64;111;95
64;88;111;56
72;72;64;72
95;95;79;56
68;94;88;107
102;92;102;98
88;84;72;76
103;62;64;90
111;48;102;95
52;64;84;95
75;64;92;95
109;90;80;84
84;102;106;111
66;68;100;111
95;64;110;111
111;64;80;108
111;64;80;92
96;111;111;78
64;80;96;108
106;92;108;108
106;96;88;110
111;64;80;103
102;84;72;80
103;111;111;95
64;72;111;95
64;64;76;100
103;111;111;119
119;103;79;80
110;93;68;92
111;95;68;64
88;104;111;111
111;64;80;100
106;111;79;64
92;111;64;76
110;87;64;66
64;84;111;111
102;88;80;88
106;96;84;111
79;64;94;111
68;64;76;100
106;95;64;64
84;103;110;111
96;76;84;100
103;111;111;111
95;68;76;108
111;95;68;80
96;79;72;111
111;95;72;72
118;64;110;111
75;72;92;111
95;64;88;111
91;64;80;111
87;68;94;111
70;80;111;95
76;72;111;111
111;96;80;88
88;84;76;88
100;107;109;111
111;64;106;111
64;80;106;111
95;64;80;110
111;95;64;92
100;111;111;111
70;84;119;74
80;92;104;111
119;111;79;72
80;80;72;76
84;92;111;107
75;64;102;111
65;72;96;95
70;72;100;111
111;111;111;111
127;64;88;96
119;111;123;119
95;72;96;118
119;119;127;127
127;111;80;100
127;126;100;80
80;88;92;96
96;88;80;72
76;80;111;71
52;72;95;95
107;79;64;88
111;94;80;84
95;79;52;64
72;88;95;95
107;79;56;84
111;79;64;76
100;71;64;88
111;95;68;64
80;103;111;79
64;80;103;95
64;64;103;95
79;64;88;111
64;72;64;84
98;95;68;64
109;48;106;63
72;95;109;111
111;87;79;64
88;88;111;91
64;68;84;111
70;72;107;111
111;64;84;109
111;96;88;84
80;64;64;72
111;79;52;64
76;111;87;69
52;72;90;84
80;84;95;88
72;64;56;56
76;76;64;72
88;63;48;68
76;95;63;48
64;91;95;79
48;68;86;87
62;64;76;94
103;79;56;48
72;92;88;78
64;48;71;95
95;95;103;88
76;88;94;95
56;64;106;95
78;64;80;111
111;106;84;84
98;111;111;111
111;114;104;88
72;68;64;76
76;80;64;64
72;72;48;52
72;64;64;76
95;40;40;68
91;71;55;48
80;54;64;95
87;44;64;95
75;48;72;86
95;79;58;64
90;79;48;64
76;95;95;95
52;64;64;84
95;84;84;86
94;79;64;90
95;71;48;68
76;103;95;71
48;80;76;78
82;79;64;92
103;95;76;64
76;95;95;48
72;72;76;95
71;48;72;76
64;64;78;78
95;62;48;88
95;79;52;48
68;95;95;95
95;103;111;111
111;87;64;80
108;111;111;119
118;116;108;96
88;119;95;68
72;88;96;103
90;96;92;88
102;106;96;109
111;119;119;95
76;64;88;102
119;110;88;72
72;72;76;82
88;84;95;109
110;79;64;72
109;111;95;87
64;64;64;90
111;87;75;64
84;100;92;84
80;84;103;95
67;64;72;80
84;76;80;95
95;48;76;103
95;75;71;52
76;103;103;111
64;80;103;111
71;64;72;102
111;79;64;72
88;111;95;111
111;80;74;95
111;111;111;118
88;80;96;119
72;68;96;119
95;64;64;80
111;64;104;95
76;72;110;111
103;76;64;84
92;95;79;68
64;92;100;84
72;64;74;95
95;52;64;84
76;94;95;88
95;95;64;64
76;84;80;68
64;64;64;84
95;79;44;64
88;95;79;54
64;84;94;92
80;64;48;48
64;84;95;95
88;103;111;111
111;100;80;80
108;75;64;84
111;111;111;111
119;79;88;104
92;88;96;111
95;64;88;111
79;72;106;111
96;72;64;72
106;95;71;64
72;111;87;64
94;111;111;111
111;64;96;119
111;111;111;95
79;72;84;104
119;119;108;100
110;111;64;80
108;110;111;111
64;76;88;96
110;102;111;66
80;92;92;102
111;64;72;88
111;79;64;108
103;111;119;111
103;64;88;110
118;98;96;104
111;111;95;68
64;64;72;92
95;64;76;95
52;64;76;95
111;52;68;88
95;78;84;88
103;71;68;92
100;84;92;95
111;52;72;98
95;48;72;86
88;111;79;52
80;82;88;103
103;101;100;96
111;111;111;95
70;64;64;84
92;98;102;111
111;64;80;92
111;102;84;92
95;64;64;72
100;87;62;64
88;58;76;102
95;60;64;92
92;107;106;111
103;70;64;76
96;95;64;80
98;111;95;64
76;104;95;64
72;92;92;103
102;95;64;92
111;96;72;64
72;88;92;95
48;72;95;95
111;58;80;111
71;72;94;111
95;79;64;72
92;111;79;64
76;111;79;64
64;76;88;103
111;56;72;84
76;92;111;95
79;64;64;80
98;95;80;84
103;71;52;72
94;95;95;87
56;68;84;103
103;111;111;111
95;68;108;119
107;79;68;92
119;68;72;88
108;111;106;111
119;66;84;108
96;84;84;88
111;56;64;84
94;107;103;92
84;88;92;88
92;80;76;68
68;95;95;95
77;56;64;86
95;52;64;76
76;103;95;62
64;111;79;64
84;111;58;64
76;103;95;58
64;80;100;103
107;79;64;84
103;103;106;92
88;103;110;111
79;64;64;84
111;60;72;100
111;111;103;86
64;111;95;66
80;102;104;111
111;64;80;111
95;64;72;96
92;111;79;64
76;80;106;95
64;64;72;106
95;64;72;84
111;79;64;84
107;95;64;52
72;84;72;64
64;64;68;91
95;44;64;76
92;92;95;79
48;64;72;94
95;103;92;100
111;56;72;103
111;95;76;64
88;71;72;104
111;111;70;72
98;87;64;80
108;95;56;76
106;60;64;102
111;64;72;92
111;87;95;107
111;90;76;80
102;87;64;92
111;111;111;95
79;64;80;84
90;111;95;64
80;95;64;84
111;95;79;64
84;87;64;76
76;109;79;64
96;75;68;84
111;95;109;92
72;72;80;86
95;103;111;109
92;119;68;68
96;111;111;111
123;79;72;104
119;111;96;80
92;95;68;92
108;111;73;72
100;95;64;106
95;70;64;88
111;79;68;92
95;56;68;95
95;71;64;80
88;111;103;107
95;64;64;72
104;111;75;64
106;64;76;111
95;64;110;111
111;75;80;92
111;95;64;80
110;79;64;80
106;111;103;71
72;111;111;111
95;111;76;84
119;111;76;64
92;111;79;64
84;111;111;64
80;80;68;76
110;75;64;106
111;111;111;74
64;72;64;80
111;91;71;64
88;79;64;88
103;95;56;64
94;87;64;92
111;91;79;58
72;102;96;106
111;95;111;119
111;76;88;127
79;80;100;119
111;103;68;80
96;96;108;119
111;70;72;80
96;110;111;95
64;64;64;72
98;111;111;70
84;111;64;72
88;98;107;111
111;95;72;92
106;111;95;70
72;88;100;111
87;76;119;77
64;110;111;95
72;64;80;102
111;87;64;92
110;111;111;91
70;64;84;111
95;64;72;80
98;95;64;80
92;111;111;78
72;119;71;68
96;111;111;95
64;72;68;88
111;79;64;64
88;111;87;64
72;76;76;107
95;56;64;72
80;95;102;84
72;72;78;95
95;103;103;94
111;75;64;84
92;76;64;72
111;48;48;64
68;72;72;78
86;95;71;44
64;103;52;68
95;63;64;88
94;95;102;103
111;79;64;64
72;111;68;52
80;95;64;100
111;79;64;80
108;79;72;98
111;52;80;108
111;79;64;88
106;100;96;111
111;86;78;72
104;111;111;111
108;127;68;80
96;102;111;111
119;119;118;127
111;72;80;104
100;125;87;68
72;84;111;95
64;106;111;95
64;88;111;111
103;64;96;111
111;111;111;95
72;72;68;80
100;109;111;111
103;79;64;80
110;106;100;92
80;80;80;94
80;64;64;72
95;55;64;84
76;74;72;76
86;79;44;68
84;95;79;48
109;58;64;76
95;95;87;79
79;64;56;64
72;80;80;95
79;62;52;64
80;90;92;95
111;95;64;56
64;72;107;95
79;75;64;72
90;107;111;111
111;95;64;100
111;64;84;111
111;72;64;80
92;111;111;111
111;68;72;92
106;95;64;80
108;79;64;64
84;100;110;95
71;64;64;64
72;84;88;80
92;95;58;64
86;95;48;64
88;95;79;50
80;111;95;66
64;96;95;56
80;94;92;111
79;64;64;80
86;95;95;87
64;64;80;102
87;64;107;95
64;68;88;103
56;68;109;107
87;64;68;106
111;111;111;119
110;111;72;104
103;64;92;111
79;79;64;76
76;72;80;103
95;56;84;111
70;68;103;111
111;95;64;80
108;95;64;72
104;95;64;80
106;87;66;64
80;79;56;64
80;84;76;68
84;95;48;72
95;95;95;95
95;95;78;64
80;88;88;88
111;87;73;64
64;98;98;106
111;72;64;72
106;109;108;111
103;78;87;76
68;64;72;76
92;111;69;64
80;88;76;64
80;95;71;48
68;72;88;95
79;63;52;48
72;95;95;79
48;92;79;48
72;103;95;64
64;94;95;79
69;64;72;80
103;95;62;64
98;92;107;94
94;111;87;64
84;111;95;95
95;95;79;72
64;84;108;95
64;119;95;64
80;110;111;103
72;80;106;95
64;88;111;87
64;119;111;95
95;111;111;127
127;95;80;100
122;111;79;80
104;95;68;88
108;111;111;111
85;84;111;111
87;80;127;95
72;88;127;95
72;80;110;111
111;111;126;119
108;104;110;127
95;72;80;104
111;64;96;111
78;74;78;72
66;64;72;84
111;71;87;64
68;95;95;64
92;95;95;95
95;87;64;80
102;111;64;80
111;95;87;87
64;88;100;111
111;79;70;64
84;95;79;64
64;100;95;75
64;68;76;92
111;79;64;64
88;95;48;72
111;64;94;111
111;111;68;72
96;88;103;103
104;111;64;76
92;111;111;111
111;111;95;68
80;100;111;111
95;111;103;68
106;111;95;76
76;127;64;88
119;64;84;96
111;111;64;84
96;88;92;111
70;64;64;64
76;102;111;95
64;64;64;64
64;72;95;94
88;111;71;64
100;63;72;111
95;87;111;111
111;64;88;127
64;88;102;110
111;70;64;72
92;87;64;92
111;56;72;100
102;111;95;64
88;111;111;95
91;95;111;95
87;72;92;111
111;111;87;68
88;119;111;74
80;119;86;64
88;100;111;111
119;87;78;68
88;111;78;64
72;111;111;111
111;64;80;96
108;118;111;76
64;80;84;107
111;95;87;64
106;119;91;64
96;111;64;80
100;111;111;95
66;64;72;100
111;64;76;102
95;74;64;76
88;111;95;95
87;95;111;98
88;72;80;94
111;95;75;64
84;111;110;110
100;119;79;64
84;102;102;88
92;100;96;111
111;87;64;64
84;111;64;80
107;111;111;95
66;80;110;95
64;100;110;111
76;64;64;64
76;84;95;102
103;103;56;76
80;88;98;95
56;64;64;64
84;95;84;94
107;111;111;111
119;95;64;80
102;95;66;64
102;79;64;80
84;111;75;64
72;88;111;68
64;100;103;107
111;64;76;92
111;79;64;72
94;106;111;107
92;119;64;80
111;87;64;64
96;95;56;72
110;95;111;100
84;110;95;64
76;92;106;111
79;68;64;80
100;111;95;64
76;110;111;96
96;103;92;88
98;100;100;88
84;90;72;72
84;110;52;64
80;95;95;79
58;72;88;102
102;95;79;64
64;72;80;103
103;111;95;64
64;96;95;64
76;106;111;111
119;79;68;84
110;95;64;84
111;64;68;84
88;88;80;84
95;111;79;71
64;64;103;95
64;94;87;64
102;95;64;64
84;95;52;72
107;63;48;64
111;79;79;52
72;84;103;95
103;111;110;96
96;96;88;104
108;111;111;70
80;84;102;111
64;100;111;87
64;88;92;105
111;103;110;104
127;95;68;84
110;111;119;119
119;111;76;72
84;122;64;80
119;95;64;72
98;111;73;64
80;96;92;84
92;111;95;64
72;88;111;111
111;111;111;96
76;72;84;96
111;111;87;68
96;96;102;110
104;111;119;87
68;68;104;111
64;84;96;102
104;111;111;104
110;111;72;80
126;95;64;80
92;111;111;111
95;72;76;111
111;79;79;64
92;111;79;64
111;111;95;87
68;72;80;104
92;111;79;64
111;70;64;92
88;100;111;111
111;111;95;79
80;119;87;64
80;100;111;95
95;95;111;108
119;95;68;80
111;111;64;92
119;64;72;88
111;79;68;72
110;111;111;111
110;119;119;95
72;72;88;108
119;111;119;119
112;127;111;95
80;120;95;72
80;119;111;87
76;119;111;79
80;96;119;119
111;127;118;106
125;119;95;80
84;116;103;72
96;119;119;119
111;95;111;127
96;96;110;126
127;127;127;127
111;80;88;104
127;103;82;76
96;118;114;110
100;108;111;122
111;95;76;72
96;110;104;111
125;79;72;108
111;72;80;96
111;111;78;64
80;111;111;111
111;95;68;76
106;111;111;88
96;119;111;80
68;79;111;102
92;84;100;111
95;64;72;84
98;111;95;87
64;80;111;111
110;88;88;102
111;111;111;100
92;111;106;110
96;123;70;72
84;92;111;111
111;111;111;88
88;92;100;111
111;111;84;68
114;95;64;80
88;106;111;111
119;127;127;95
80;127;74;88
127;68;72;92
106;96;96;111
87;72;96;111
111;111;119;127
124;127;127;127
127;116;127;119
111;88;116;126
120;127;127;127
119;92;80;104
110;118;127;111
87;80;106;127
95;84;78;68
88;111;87;95
111;100;110;119
111;68;80;96
111;93;111;111
82;88;116;111
122;123;95;72
84;104;123;111
87;84;111;108
104;116;96;76
80;96;111;111
64;68;96;111
95;111;110;96
123;95;72;92
96;111;106;111
127;78;64;72
84;111;71;64
96;111;111;111
104;80;76;84
111;79;64;76
100;111;102;111
111;96;80;64
64;80;103;111
95;79;64;80
96;108;111;104
111;111;127;111
127;119;127;119
102;80;88;100
119;123;127;127
127;111;80;88
108;118;122;126
127;95;80;127
127;127;127;95
88;108;127;103
84;120;126;127
127;127;111;86
88;122;111;72
96;108;110;127
79;100;127;111
95;72;88;96
100;104;111;111
96;116;111;83
72;116;107;91
68;80;88;106
111;111;108;100
108;119;111;111
72;84;100;100
126;111;100;72
80;98;111;95
111;127;111;82
84;124;119;125
125;127;127;127
95;80;76;88
124;84;72;104
127;107;123;110
112;127;127;95
80;127;72;84
88;116;111;68
100;119;111;123
127;103;76;96
122;119;111;87
80;104;114;116
127;123;96;80
96;119;79;80
111;110;80;72
88;111;111;68
68;111;68;72
96;100;88;84
88;111;95;64
76;111;87;64
88;110;95;79
64;102;111;95
64;80;110;95
95;87;64;80
96;111;87;64
92;111;111;111
126;111;88;103
114;108;102;92
100;108;111;111
108;119;78;72
108;111;111;108
96;119;119;108
106;118;119;127
127;127;127;127
135;123;114;104
122;103;87;76
80;123;87;72
80;118;119;127
103;72;72;84
104;111;87;64
108;111;110;88
80;111;111;111
76;84;111;79
76;64;68;88
98;100;110;95
68;64;80;111
95;95;79;95
103;64;96;111
95;64;68;80
84;109;95;64
72;111;87;87
64;64;72;88
92;92;95;107
111;95;79;64
80;111;110;111
103;74;64;92
119;95;87;64
100;95;64;64
80;92;103;111
111;87;74;64
80;103;111;95
103;111;87;70
72;96;111;111
119;119;127;126
118;124;126;127
103;92;80;88
104;119;127;87
76;72;80;111
95;64;72;100
111;95;76;64
96;111;103;84
80;103;111;111
111;111;100;96
100;111;111;123
117;114;127;114
110;122;104;84
80;96;111;111
123;127;127;127
127;127;104;100
110;127;107;94
84;114;111;68
96;119;111;94
91;95;111;76
80;84;88;100
110;104;88;84
111;64;88;111
68;72;100;111
64;84;111;111
95;64;72;88
100;111;70;64
88;111;111;87
64;80;111;111
111;111;96;80
88;110;111;111
119;111;119;119
126;127;127;116
104;127;72;96
127;68;100;110
119;119;111;104
92;104;108;118
111;68;96;119
127;95;72;68
88;104;111;76
72;84;96;111
79;64;80;110
111;71;72;106
95;68;88;110
111;64;92;111
95;111;92;102
119;111;119;127
127;111;103;92
88;122;111;78
88;127;127;127
127;127;124;108
100;112;119;74
80;104;123;127
127;110;80;80
104;111;103;119
127;89;76;80
100;127;95;72
84;100;111;87
64;100;119;95
64;84;111;95
94;68;96;111
95;64;64;96
108;111;111;111
111;111;127;127
127;103;95;80
88;100;100;119
127;111;111;72
104;116;110;123
126;127;116;88
80;96;104;127
68;80;110;111
95;64;76;96
111;95;70;68
92;95;64;80
111;95;66;64
84;98;106;111
111;111;119;95
72;100;111;64
96;111;64;92
119;95;111;95
95;86;76;72
100;100;104;110
119;111;79;76
96;100;92;88
84;96;100;108
95;64;68;92
111;111;95;95
86;64;84;108
111;111;111;95
64;88;111;111
119;95;64;80
96;100;106;92
80;84;110;95
64;84;111;79
64;68;88;111
64;80;100;111
107;111;111;96
80;96;95;64
80;111;66;64
88;111;111;111
111;106;96;111
111;80;119;103
95;72;92;111
111;111;102;118
110;126;95;72
88;96;111;119
111;72;80;96
111;106;80;80
98;95;68;64
88;100;80;80
111;79;71;64
92;95;103;111
95;64;72;106
111;79;79;70
64;76;103;111
71;80;111;95
70;64;76;84
100;102;92;80
92;110;111;64
84;94;84;80
84;88;95;92
84;76;111;79
48;80;94;92
109;95;84;64
56;52;64;80
95;48;48;72
84;95;95;87
58;72;107;71
48;64;111;79
52;76;95;52
64;64;64;72
72;76;92;86
68;64;64;68
68;82;78;68
64;64;64;68
91;95;87;78
64;64;64;72
95;87;95;87
67;48;72;95
79;64;86;87
48;64;72;80
95;95;95;95
88;82;92;111
95;64;80;107
109;94;94;96
102;98;100;96
96;111;95;68
68;84;111;74
64;80;94;92
98;111;111;111
111;87;72;68
108;79;64;80
111;75;64;76
92;90;90;95
95;111;79;64
88;96;76;84
84;88;103;100
94;92;72;72
80;84;103;79
48;80;95;54
48;72;95;87
52;76;95;79
87;71;52;68
111;48;64;76
110;58;48;72
103;62;48;64
64;64;64;64
76;95;78;64
64;87;94;95
63;68;95;79
64;92;95;58
64;92;95;103
88;111;111;64
84;94;100;94
111;111;111;110
119;119;92;76
84;102;111;111
119;108;80;64
80;96;111;111
87;75;87;91
64;76;92;108
111;79;72;64
92;100;80;72
104;95;84;92
96;111;87;64
72;88;103;111
111;92;80;84
88;64;56;64
84;95;82;84
94;103;95;84
76;80;88;103
111;95;66;64
88;100;111;111
95;64;72;111
95;64;76;88
111;64;88;111
95;71;64;80
98;92;64;64
52;68;94;95
79;64;86;95
56;64;64;72
95;95;102;111
111;70;64;88
111;95;95;75
72;90;90;72
96;107;103;109
111;111;117;118
111;80;122;111
95;76;88;92
127;68;76;108
119;111;95;64
88;106;108;96
108;119;119;118
127;119;127;127
124;108;104;104
114;110;104;110
127;111;95;72
96;100;114;111
95;68;72;102
111;64;64;92
111;111;103;111
111;111;80;72
88;98;111;111
95;68;72;102
111;111;111;96
84;84;96;111
95;95;111;108
104;96;98;98
111;111;111;119
127;127;127;127
127;119;92;80
88;96;106;116
116;108;116;116
118;123;112;96
110;127;119;127
127;76;100;108
127;95;80;96
110;119;123;127
110;100;96;88
84;96;111;111
95;68;72;102
106;100;92;119
111;111;111;123
111;68;96;119
127;95;76;80
96;116;119;103
76;80;102;104
106;96;108;111
119;123;127;127
127;111;111;82
100;127;127;122
126;127;120;127
116;108;96;104
127;111;95;80
80;104;119;127
127;72;88;104
127;95;68;80
88;88;72;76
96;95;79;64
88;94;76;72
98;79;52;64
76;68;64;68
84;87;44;64
80;95;94;64
64;64;76;94
95;44;72;95
95;60;64;72
76;74;64;52
68;95;58;44
64;76;78;95
79;95;95;110
111;111;111;87
64;72;88;111
111;119;119;126
119;74;88;123
111;76;96;104
119;96;96;111
78;72;98;110
111;108;111;108
116;111;104;96
104;119;119;126
122;96;72;96
119;64;100;111
79;80;119;111
68;80;119;95
64;84;111;111
111;87;64;84
100;106;88;92
111;111;102;96
111;111;119;95
64;84;96;80
72;76;68;72
80;84;95;103
102;103;106;88
100;95;64;72
111;64;111;95
95;95;111;88
76;76;88;111
111;95;103;95
64;84;119;75
68;96;111;79
68;80;110;111
79;64;64;88
111;64;84;80
98;107;111;64
72;88;100;111
79;64;88;109
111;95;64;68
94;95;64;96
111;64;80;94
103;109;106;106
119;64;80;108
111;111;87;64
88;92;96;100
111;111;87;64
80;104;104;96
92;100;111;111
79;76;119;91
64;72;88;95
70;64;80;84
100;92;100;111
111;111;88;72
96;63;64;84
107;111;95;77
64;80;94;95
92;92;76;72
72;76;95;94
103;95;62;64
92;111;95;64
64;84;111;95
56;80;111;64
64;80;90;111
111;64;64;76
102;111;95;64
92;106;111;111
76;72;106;111
111;111;111;127
127;94;72;96
127;95;72;80
84;88;84;102
111;77;64;80
110;71;64;72
84;111;111;71
64;72;72;95
110;107;84;96
108;92;76;84
106;79;52;72
109;48;68;80
103;87;95;96
100;111;95;79
64;72;100;107
108;95;76;64
80;111;95;95
64;80;98;104
94;102;111;95
74;72;119;87
64;80;92;111
87;68;84;109
108;84;76;72
111;64;102;111
95;64;68;98
111;56;80;102
111;64;80;88
109;95;68;64
88;111;87;64
98;111;96;104
111;95;95;66
80;92;76;80
100;95;64;64
84;80;72;92
95;71;48;68
102;71;48;52
80;92;92;80
72;88;95;95
69;71;52;64
88;95;79;52
64;80;95;48
80;95;63;48
80;103;95;69
64;80;76;86
111;95;79;64
80;108;111;64
72;84;111;79
64;72;90;111
95;64;64;80
111;48;84;111
79;64;76;111
95;64;111;95
71;64;64;72
100;87;79;52
76;102;95;79
64;64;84;95
92;111;87;64
98;79;64;88
111;107;111;111
119;119;118;127
111;72;96;118
127;68;100;116
127;119;110;108
127;80;127;91
72;80;96;119
119;119;116;100
104;127;103;68
96;92;80;76
104;111;103;87
64;76;80;102
111;87;64;88
111;64;96;111
95;95;111;111
74;80;119;119
127;68;80;96
119;95;72;80
111;110;119;123
123;127;119;119
127;126;116;116
127;111;80;96
127;119;111;123
119;80;100;118
127;127;90;84
96;88;72;72
88;96;111;111
72;76;111;111
64;84;111;95
64;80;104;111
103;95;111;111
95;80;125;127
127;74;88;96
104;111;91;68
72;104;111;119
119;79;72;80
96;119;111;119
127;111;111;103
91;76;80;108
127;72;80;96
125;111;95;79
72;80;96;111
95;64;88;111
64;72;76;98
94;80;84;94
102;95;71;64
72;103;107;111
111;64;84;102
106;111;64;80
111;64;72;102
111;70;64;102
111;64;80;111
64;72;105;95
64;68;92;111
68;68;106;111
111;87;72;80
84;84;92;111
74;64;103;111
87;95;95;95
64;96;119;119
127;111;79;80
108;95;64;80
106;95;72;64
96;111;95;79
64;88;111;64
64;76;80;102
103;111;87;79
93;64;80;92
106;88;80;80
82;84;90;100
100;103;94;84
84;72;64;76
111;61;64;72
80;76;84;95
95;56;64;92
103;79;60;68
94;111;111;111
111;95;91;64
92;111;64;80
111;75;72;98
111;79;64;76
84;88;80;94
111;79;71;64
84;109;111;95
95;87;64;88
111;64;80;98
111;87;64;80
111;56;80;111
79;64;76;111
56;68;84;95
66;64;92;111
75;64;80;103
95;64;92;107
111;64;88;84
72;72;76;90
95;52;64;86
103;95;71;52
68;103;95;95
95;111;95;64
96;77;64;72
100;95;64;72
104;95;87;66
72;111;111;79
68;64;64;72
100;111;87;70
80;111;111;110
100;92;96;111
95;72;119;74
68;108;111;95
79;72;100;111
119;95;94;68
84;108;100;111
111;119;126;127
95;72;119;111
72;104;111;74
84;108;111;111
118;103;68;80
111;70;76;102
111;64;64;80
111;64;96;111
95;111;111;111
119;64;96;114
111;76;72;100
119;95;68;100
96;119;111;95
72;72;111;111
79;64;92;111
111;64;96;111
71;64;76;98
111;79;72;92
111;64;72;98
111;56;68;100
107;79;64;96
111;64;72;88
111;79;66;64
76;76;64;64
80;95;95;87
71;64;80;103
111;91;64;72
111;56;80;111
95;64;64;72
104;48;76;90
95;76;64;68
92;44;64;72
86;78;95;79
52;48;76;95
95;95;90;111
95;64;102;111
111;111;108;100
119;68;80;100
111;64;80;106
111;64;96;111
111;79;76;87
72;64;72;90
111;64;72;88
84;76;76;92
95;84;80;92
94;79;48;68
102;95;110;111
95;64;80;100
111;95;68;64
88;111;111;95
79;64;80;84
92;95;64;72
111;79;64;56
76;95;48;64
103;67;64;88
95;48;64;88
95;48;72;80
90;63;64;95
87;54;52;68
95;48;68;95
95;70;50;68
82;95;56;64
95;79;52;64
90;44;68;95
95;95;110;95
56;68;64;64
102;58;64;94
103;68;64;80
92;103;107;102
92;103;95;103
94;64;72;96
111;64;111;95
64;84;92;111
79;72;88;111
95;64;88;111
70;64;84;103
111;95;78;64
88;110;111;111
119;111;119;111
111;80;80;104
122;119;119;119
88;84;72;72
111;119;111;111
95;76;88;108
123;111;96;96
96;88;84;94
96;106;111;70
88;79;64;64
106;66;64;72
84;95;103;95
64;80;90;100
98;110;111;68
80;111;78;64
88;111;95;64
84;110;111;95
64;84;96;111
87;95;95;66
80;119;107;70
68;80;94;108
111;95;64;72
106;87;64;76
111;48;88;111
79;64;92;111
68;64;102;111
95;111;98;76
84;92;100;88
84;84;92;108
111;56;80;111
111;111;104;104
117;95;64;96
96;108;102;104
111;95;64;88
111;95;64;84
111;64;92;111
111;111;110;123
127;68;96;119
123;111;87;74
80;88;96;111
95;95;93;66
72;64;80;103
102;94;72;64
88;59;64;92
88;92;95;103
95;71;64;76
111;103;79;64
80;106;111;111
108;106;106;111
117;95;87;64
88;111;95;95
79;64;72;94
111;64;84;96
88;92;94;110
79;64;64;100
95;60;64;84
98;95;95;67
64;96;109;111
111;95;64;72
96;79;64;64
111;58;64;72
84;95;95;95
71;56;72;96
111;60;72;84
111;66;64;52
72;111;95;91
68;80;108;111
87;64;88;111
111;111;111;111
91;72;100;111
116;127;95;72
80;96;111;111
119;111;103;91
68;68;88;111
103;70;72;96
111;64;72;92
107;111;79;64
88;75;64;90
111;65;64;72
111;54;64;88
95;87;56;64
72;103;95;95
111;111;95;64
88;111;64;76
111;103;79;64
96;71;64;84
111;64;72;84
95;48;76;111
70;64;80;80
103;79;52;80
111;95;95;87
95;66;64;72
100;94;84;80
88;87;52;64
72;103;95;79
64;64;64;64
84;95;95;71
52;52;48;64
78;95;95;95
95;56;64;100
95;95;64;64
72;111;52;80
107;95;107;88
88;111;111;95
74;64;84;102
111;64;80;106
111;102;96;108
111;64;84;104
111;95;91;64
96;95;87;64
100;95;64;64
102;62;72;88
90;95;87;64
64;72;103;107
95;95;87;87
78;64;80;92
88;92;100;95
64;84;90;98
111;95;79;64
104;71;68;88
107;103;111;111
75;64;96;106
111;111;111;95
64;68;64;92
104;111;111;111
111;64;88;111
119;119;127;119
95;76;80;96
108;119;111;111
76;72;80;108
119;111;74;64
96;74;72;102
108;111;111;95
64;76;88;111
70;72;102;111
78;64;64;90
111;64;64;80
111;48;76;110
111;74;64;72
90;111;64;64
90;107;111;111
119;79;80;88
111;95;111;111
106;118;110;114
120;111;104;100
119;64;88;119
125;87;72;96
119;75;72;100
119;72;68;100
111;106;80;64
64;64;72;84
107;87;48;80
95;52;80;111
56;64;68;88
102;95;71;52
72;103;95;64
96;111;111;119
111;76;64;84
108;79;64;64
76;111;95;64
76;95;103;95
74;66;64;72
111;87;64;64
72;108;95;64
72;111;79;64
96;78;72;111
87;64;80;103
95;64;64;64
72;111;87;58
72;98;94;88
111;95;64;64
98;70;64;80
111;56;72;86
111;56;72;94
95;58;52;64
94;54;76;95
48;64;86;95
95;52;64;92
92;80;68;64
76;95;95;95
64;64;68;80
111;52;64;95
111;87;52;68
102;60;64;84
95;103;95;66
64;64;64;92
111;95;95;95
64;64;64;72
100;95;66;64
92;58;72;103
77;52;68;95
95;56;64;80
107;103;96;106
110;111;64;92
111;111;119;95
72;72;80;88
106;111;95;72
84;111;64;80
109;111;102;102
104;73;72;96
111;64;80;107
111;67;64;80
111;79;64;64
64;95;103;111
111;103;111;87
72;96;119;111
111;78;80;96
111;64;96;110
111;111;111;116
108;111;86;72
104;111;95;68
80;111;111;95
64;80;119;119
123;79;72;84
111;68;68;80
111;64;72;100
111;111;111;76
64;98;110;104
111;111;111;119
119;111;72;76
104;111;64;88
119;64;76;92
96;96;100;111
111;111;95;75
72;119;95;64
72;72;64;72
76;111;70;48
84;79;68;111
79;56;64;64
111;52;64;102
95;58;64;68
92;63;64;94
95;52;64;76
110;71;48;72
88;103;103;107
111;79;64;80
98;111;95;67
68;98;95;66
72;92;88;90
110;69;64;92
103;103;102;88
111;79;64;80
92;95;88;111
95;64;72;90
111;111;79;64
72;111;111;95
78;72;102;111
95;95;111;87
68;98;111;87
64;64;64;96
95;64;72;76
88;95;64;88
98;111;111;111
111;111;72;80
96;111;111;79
64;92;111;111
87;68;92;111
95;78;72;79
64;72;88;111
95;66;64;80
103;111;111;111
111;70;96;119
66;96;127;79
72;96;111;111
73;84;119;95
64;80;98;111
64;88;111;111
119;95;64;80
108;87;64;80
102;79;68;88
102;98;111;111
111;119;111;85
80;111;119;116
119;95;72;96
126;111;95;95
95;90;82;72
84;127;74;80
127;72;72;96
111;106;110;106
100;127;95;64
84;119;87;64
96;95;64;64
80;111;71;64
100;79;72;111
64;76;94;111
75;64;64;78
92;103;111;87
64;111;71;64
92;111;70;64
100;79;64;84
111;111;95;64
80;111;64;72
102;111;103;87
70;64;64;84
100;100;80;72
88;95;78;52
80;103;107;94
72;76;76;84
95;111;62;64
76;95;48;82
103;79;48;72
102;58;72;103
95;48;72;95
111;95;64;64
80;111;71;64
80;87;66;52
68;84;95;95
111;62;68;92
110;95;92;92
88;111;64;64
100;111;109;111
79;64;80;96
111;77;64;100
111;95;64;92
111;94;80;76
76;86;95;79
77;68;64;64
92;79;52;68
103;95;79;60
64;90;92;94
84;80;95;103
95;79;64;80
100;107;103;71
64;72;88;98
111;64;76;103
95;68;64;76
111;70;64;72
94;71;64;92
95;64;102;95
69;73;77;70
64;64;84;111
95;75;64;88
111;87;56;72
106;67;64;88
111;95;79;56
80;95;56;72
107;111;95;66
64;103;100;94
96;92;98;98
88;111;64;64
109;87;64;72
111;79;64;72
88;102;95;78
64;80;111;70
72;110;95;64
76;111;64;104
111;64;64;88
111;95;64;84
92;111;79;64
64;72;84;95
107;87;64;52
80;79;48;56
72;86;95;95
95;87;58;64
92;92;111;95
64;84;102;111
111;111;111;68
100;95;64;88
108;95;64;64
72;111;75;64
102;107;111;111
111;95;72;108
118;123;110;88
100;127;64;84
108;119;119;123
127;127;94;80
116;95;76;72
100;127;68;80
116;119;111;111
84;76;76;84
100;111;87;66
76;127;87;64
92;95;64;72
92;111;111;79
64;72;88;111
95;95;95;64
80;111;95;64
106;87;68;100
111;95;70;68
96;111;111;78
64;119;111;111
111;127;127;127
127;127;127;124
100;116;127;124
127;127;84;84
108;119;76;84
96;104;125;127
111;127;91;80
108;121;127;127
109;82;80;80
104;123;127;119
107;111;127;127
127;116;108;127
127;119;80;112
127;127;127;126
120;127;127;127
127;128;110;124
127;95;80;84
118;95;68;88
95;72;84;106
111;92;80;92
111;95;64;88
111;95;95;95
84;84;95;103
78;68;80;88
111;95;74;64
72;104;111;111
91;70;64;72
88;111;111;77
64;119;87;64
76;111;95;68
64;98;95;64
72;111;79;64
80;106;95;64
80;107;111;111
64;100;95;64
92;111;87;71
64;88;102;111
111;87;66;68
100;95;70;87
111;92;76;72
84;109;95;64
76;94;111;79
64;88;95;95
78;79;79;70
64;102;111;70
68;98;111;111
95;76;64;80
92;110;111;111
104;126;84;64
84;96;106;111
110;126;111;111
103;82;72;68
80;126;78;72
80;88;88;92
94;95;64;80
95;92;102;111
68;74;91;64
72;111;87;64
104;79;64;102
95;70;64;84
111;111;95;79
64;108;111;95
64;80;80;84
106;95;68;64
84;111;52;94
111;111;111;111
95;95;111;122
118;127;111;127
127;127;127;127
130;108;112;117
127;111;86;76
88;110;123;123
127;119;111;91
80;88;108;127
127;127;127;127
127;100;96;116
119;95;80;100
122;120;127;119
93;80;72;88
110;111;116;118
114;118;127;127
127;72;96;106
127;111;95;82
80;111;127;82
80;127;95;68
104;127;95;64
84;127;74;64
84;100;111;79
64;111;68;72
94;82;76;86
88;95;103;107
111;111;111;87
64;96;111;100
110;119;111;95
72;119;79;68
88;111;111;108
100;119;111;70
84;96;111;87
64;64;68;109
95;64;90;111
95;103;119;95
68;88;111;119
119;103;127;116
104;100;104;123
127;127;127;127
127;127;103;80
116;127;103;86
96;118;127;127
127;127;84;88
100;100;111;110
110;125;103;72
96;126;119;114
127;127;78;96
127;95;84;72
72;110;118;127
82;72;96;111
64;127;64;88
119;111;87;68
84;108;111;111
68;80;100;100
117;111;103;72
72;100;95;64
76;111;95;95
64;84;111;111
64;92;111;79
64;92;92;88
100;111;95;71
68;84;76;64
68;111;60;64
92;88;72;68
72;103;52;64
95;87;60;48
72;95;79;48
68;86;95;103
95;100;111;111
104;80;64;64
64;95;95;52
72;98;95;78
64;95;56;64
80;95;95;94
84;88;111;110
111;111;87;80
116;119;88;68
76;111;104;92
92;111;111;111
111;95;95;87
72;72;64;72
100;111;87;64
76;100;111;66
64;104;111;79
76;108;95;79
64;72;80;92
107;111;95;95
87;78;64;72
88;111;95;79
64;106;111;87
64;80;96;111
78;64;76;80
111;95;87;68
72;92;103;111
111;111;95;79
68;64;88;95
75;64;68;84
90;102;111;95
79;64;72;84
106;111;111;111
111;111;95;80
123;127;76;76
108;119;72;72
104;111;79;68
64;92;111;87
87;95;104;84
88;119;64;84
110;111;119;119
111;111;126;122
120;124;112;110
108;118;127;94
82;82;68;80
110;111;87;72
100;110;111;88
72;84;92;100
111;79;64;80
110;111;64;76
98;111;111;111
95;68;80;104
119;95;64;96
111;87;64;80
111;111;95;103
111;119;96;96
96;88;96;100
108;111;111;111
96;92;92;100
123;103;119;127
111;87;76;92
96;118;111;93
79;68;68;92
95;64;96;106
102;111;66;72
100;95;64;84
103;111;111;95
95;79;70;64
80;106;111;111
119;123;103;72
96;116;119;127
125;127;127;127
127;90;88;120
119;88;76;80
104;127;111;91
76;72;84;118
95;72;80;84
108;111;64;64
72;92;109;111
64;96;111;78
64;100;111;111
119;116;104;100
96;80;84;84
88;111;95;87
68;64;88;111
111;111;111;119
92;72;72;84
98;111;95;68
64;106;111;79
64;119;87;64
80;84;94;103
92;94;111;111
111;119;118;119
127;127;127;127
127;126;124;127
127;134;127;84
88;120;111;111
111;123;104;120
127;76;80;108
111;127;95;72
110;95;74;80
119;95;79;64
80;119;66;64
88;111;95;66
72;108;111;66
84;111;103;76
64;88;100;88
88;100;110;106
111;111;111;111
111;123;127;126
96;96;96;104
126;127;127;80
84;116;127;119
107;111;127;127
95;84;114;127
127;84;80;96
116;119;127;127
127;127;116;108
104;96;100;110
123;119;127;122
127;103;80;76
104;127;127;127
111;103;72;88
120;123;118;127
111;78;76;88
104;127;95;68
88;90;119;87
72;127;68;72
80;88;100;100
84;102;95;64
88;100;100;106
98;96;111;95
64;72;84;107
111;103;96;84
92;111;111;79
64;84;111;100
92;100;90;88
80;111;95;64
72;111;95;87
95;87;111;111
118;111;64;96
104;125;111;95
76;88;96;118
111;95;76;68
84;102;111;76
64;80;108;111
87;68;64;80
111;95;78;68
64;80;102;102
111;95;102;84
88;110;111;111
104;119;119;95
93;68;88;104
115;119;127;78
88;112;125;116
96;106;127;95
68;96;100;111
87;64;80;119
111;103;111;96
88;123;111;72
88;116;95;68
84;119;87;68
98;111;111;64
80;102;111;79
64;96;119;95
64;88;96;106
108;119;103;72
72;118;111;79
68;100;96;84
92;106;110;102
96;80;80;80
84;88;88;84
103;71;52;72
92;95;95;75
56;80;95;79
87;52;64;84
111;52;64;111
95;100;76;76
98;111;95;95
87;111;104;76
79;64;96;100
98;100;104;111
95;72;96;111
72;80;111;111
95;80;106;111
111;64;80;96
108;111;111;104
92;104;119;64
84;119;93;64
96;119;119;118
110;124;127;95
96;127;72;80
123;91;68;96
110;119;123;123
119;104;104;100
108;117;104;110
127;68;96;115
118;119;122;127
127;111;103;111
111;84;96;119
127;76;96;116
127;119;127;111
95;100;127;127
80;104;127;85
88;127;111;95
80;122;127;119
95;84;112;119
72;100;116;116
110;114;127;95
72;108;127;95
72;88;125;77
100;119;125;123
116;112;112;127
127;127;116;127
127;80;80;116
118;127;127;127
127;122;112;120
127;124;112;127
95;96;108;124
127;95;92;72
96;106;96;88
111;111;102;119
87;80;104;111
68;96;111;64
88;108;111;87
64;92;111;64
76;96;106;111
111;111;108;80
72;64;64;64
111;95;95;71
64;80;98;110
95;64;76;106
111;71;64;76
111;95;95;71
64;102;111;95
111;95;64;80
102;108;111;111
64;96;111;68
88;111;111;111
64;88;100;98
92;88;111;95
64;96;95;68
64;94;111;77
64;68;92;111
64;64;72;88
111;79;95;64
80;108;111;111
87;80;111;111
72;88;111;79
64;100;111;95
72;68;80;111
79;68;96;95
64;72;94;111
95;64;64;110
95;64;88;111
71;84;95;64
80;88;76;88
92;102;100;111
111;111;71;68
111;110;92;100
111;106;98;100
96;92;98;111
111;64;64;64
68;84;86;90
84;80;72;72
95;95;111;70
71;60;48;64
72;78;76;84
84;86;95;95
102;84;64;64
80;80;84;95
103;95;103;94
88;76;72;76
94;103;95;88
72;80;100;103
100;103;98;90
88;103;111;71
80;102;103;106
111;79;64;72
92;92;95;96
96;103;111;95
76;74;79;64
72;84;111;87
64;80;111;79
64;72;88;107
111;66;64;76
100;111;111;87
64;105;111;76
72;92;111;111
66;80;111;95
95;68;64;72
96;103;88;88
96;111;95;95
64;102;64;76
102;111;70;72
111;64;64;80
111;56;68;106
111;100;72;64
64;88;95;66
64;76;107;111
87;56;80;111
95;95;87;64
100;95;87;79
64;88;107;110
111;111;68;72
111;111;119;111
78;88;119;95
64;96;111;64
84;104;111;111
111;104;76;80
88;107;111;111
87;84;119;77
80;88;98;106
119;66;80;94
111;87;64;72
88;98;109;111
119;64;88;111
79;84;111;87
64;64;72;96
100;92;80;94
95;64;64;88
95;48;80;102
111;111;111;111
119;119;110;96
76;79;111;108
96;98;111;110
100;100;96;106
111;111;108;117
119;72;72;92
111;87;79;64
80;111;111;95
79;76;108;111
110;92;80;80
88;102;111;75
64;76;84;111
87;64;92;106
111;111;111;87
68;84;104;111
79;72;110;95
64;96;95;87
87;64;80;108
111;111;98;104
104;110;111;95
64;96;123;111
72;80;100;111
119;108;84;88
108;111;95;72
100;104;88;80
88;80;64;64
102;95;70;64
111;64;92;103
95;64;100;95
78;72;106;111
95;80;111;111
111;68;80;100
111;111;100;108
127;74;64;80
111;66;64;72
88;111;87;64
76;88;102;107
111;79;64;92
96;88;82;80
92;84;80;90
103;103;88;88
88;103;96;80
84;102;95;79
70;64;76;108
95;56;76;102
111;64;64;80
94;76;64;52
52;64;95;95
95;95;102;94
88;84;80;84
107;79;52;72
106;48;64;72
111;64;92;107
87;64;107;94
84;76;64;48
64;72;72;64
82;84;64;48
64;74;68;95
95;40;64;72
84;95;79;60
48;72;90;95
79;48;84;95
71;72;84;95
95;76;84;86
111;52;64;84
95;62;64;94
95;61;64;92
103;103;109;95
64;88;111;111
98;88;88;111
111;110;106;96
84;80;80;92
103;92;76;88
107;95;71;64
84;95;92;106
111;68;64;64
110;79;56;64
80;84;76;84
95;95;54;64
84;103;95;92
88;76;100;95
103;52;64;84
111;62;52;64
72;88;95;86
76;68;68;72
95;55;48;68
74;64;64;90
95;95;95;103
111;87;64;76
88;88;103;87
64;92;70;64
100;111;79;64
64;76;95;95
64;72;103;103
111;102;80;64
80;88;80;72
72;76;95;91
87;64;94;111
109;94;64;64
68;80;90;103
95;79;64;52
92;63;64;64
86;103;67;64
94;80;80;86
103;95;79;52
72;80;76;80
95;71;64;88
95;95;71;52
72;72;92;95
48;76;92;95
54;64;84;95
87;52;48;64
86;78;64;68
90;79;46;48
84;95;95;87
70;48;76;102
107;95;95;95
79;68;84;111
79;64;111;87
64;72;94;111
95;64;100;95
79;64;84;111
56;84;110;106
102;110;96;96
108;111;111;111
68;100;111;64
88;111;119;119
95;68;72;88
119;87;70;64
88;108;111;111
95;64;64;80
110;79;64;92
95;56;64;88
95;107;95;79
64;80;98;94
84;80;107;79
64;72;111;87
68;64;72;84
92;76;64;64
74;95;63;48
95;55;48;80
95;95;95;95
111;91;74;76
100;111;111;111
111;68;80;96
111;111;111;79
80;84;80;80
92;109;111;109
111;77;64;80
94;111;111;111
64;80;111;111
78;72;96;108
111;111;98;88
96;108;111;111
110;102;92;104
123;87;68;64
88;88;76;84
106;95;79;64
72;76;72;76
95;95;111;95
87;64;111;95
64;72;108;111
87;76;111;95
95;74;68;88
111;74;64;84
111;64;64;72
94;111;79;64
100;110;111;111
111;88;68;64
88;111;95;79
64;80;111;95
64;80;110;111
111;95;111;111
95;80;96;111
119;100;80;80
92;95;64;76
111;56;80;95
79;64;80;102
111;95;64;88
110;98;72;68
80;76;84;79
48;68;76;90
95;48;64;92
95;79;71;75
52;64;72;95
95;102;98;103
110;96;76;72
100;95;79;64
88;92;76;102
103;79;64;72
94;111;95;68
72;100;111;95
75;64;100;100
96;111;64;96
95;72;96;95
64;76;84;94
111;56;76;92
95;64;72;95
95;64;107;79
64;76;102;111
58;76;111;87
64;64;68;72
72;72;76;94
95;95;87;79
64;64;100;95
56;64;88;111
56;80;111;67
68;111;79;64
72;80;92;102
94;111;95;70
68;80;88;111
95;64;76;111
95;64;111;64
64;72;84;107
87;64;103;95
64;72;80;88
100;87;70;58
64;64;68;72
88;72;64;64
68;94;95;95
95;60;52;64
84;95;95;66
64;72;76;72
86;87;56;48
72;72;95;95
48;52;68;95
79;64;84;88
95;48;64;95
95;48;64;72
95;94;95;92
110;64;84;100
94;100;111;79
64;72;72;84
102;95;95;111
71;68;103;111
111;111;111;103
79;80;110;95
66;64;72;80
94;107;100;84
76;86;111;79
64;64;80;92
94;79;64;76
90;80;64;48
64;92;95;95
70;48;76;95
79;52;76;103
103;62;64;102
71;64;88;102
95;48;88;79
64;64;72;68
64;64;56;64
76;95;79;87
95;95;79;95
91;79;64;72
96;111;111;96
88;94;110;111
70;72;88;111
111;111;87;64
88;92;106;111
79;64;88;111
95;64;80;96
95;64;76;94
111;91;64;72
88;95;64;64
80;95;88;95
102;62;64;68
102;52;72;95
95;87;66;56
80;98;107;111
111;111;95;95
76;68;100;111
95;64;80;111
95;64;104;103
95;66;64;72
108;56;64;76
94;111;95;78
64;64;107;95
64;84;103;111
87;68;100;111
71;68;76;88
92;111;95;79
64;102;111;108
111;103;95;79
68;84;94;100
106;95;95;95
66;64;84;111
95;64;72;80
96;111;71;64
92;100;80;72
103;95;95;79
64;80;111;95
76;68;92;111
64;72;111;71
64;72;92;103
95;52;84;104
111;64;88;111
95;64;84;111
79;64;68;111
74;64;84;111
110;111;111;111
111;72;96;119
95;64;88;92
119;64;80;111
111;119;95;68
108;95;64;88
111;111;68;72
88;102;84;84
80;98;103;103
106;111;84;80
111;111;111;95
86;68;108;111
95;70;76;100
108;111;111;119
127;111;91;72
96;104;108;123
103;95;86;64
96;111;119;119
111;72;100;111
111;123;119;123
125;127;112;112
110;122;127;127
127;111;86;88
104;116;123;127
107;76;96;116
126;111;95;72
100;95;72;88
119;64;72;111
111;87;64;88
111;95;64;80
111;87;74;64
80;68;68;68
88;95;95;90
95;95;79;71
72;84;84;82
94;71;64;68
72;95;95;103
111;78;72;92
111;95;64;72
100;95;56;76
102;63;56;64
76;80;95;95
48;64;76;94
95;79;56;52
80;95;95;103
88;64;48;72
102;95;79;56
76;95;94;111
71;56;76;100
95;64;102;111
95;64;72;102
108;71;64;88
111;79;64;64
76;76;64;72
95;79;71;52
72;92;95;103
111;95;111;111
74;80;108;111
74;72;100;111
95;64;88;111
111;119;95;72
96;108;96;80
80;80;92;111
111;64;88;106
111;74;64;64
72;92;100;88
80;72;68;76
95;79;50;48
64;78;95;95
95;48;80;111
103;111;95;64
80;100;88;80
84;80;80;84
88;95;107;111
111;68;80;111
87;68;92;92
111;111;103;95
79;64;88;100
111;111;111;111
111;64;96;116
116;119;119;87
72;84;127;79
72;119;95;64
102;95;79;66
64;68;76;80
102;107;95;95
95;79;64;88
111;56;72;80
72;80;111;71
68;102;111;111
111;111;76;72
111;64;88;111
95;76;64;64
76;72;64;88
95;48;68;88
95;48;68;95
95;79;48;68
88;95;48;64
103;60;48;76
95;44;52;86
95;79;54;48
68;80;64;64
80;95;48;48
64;64;68;91
95;95;95;103
95;64;88;98
80;84;80;86
72;68;64;72
95;95;95;111
111;52;92;111
95;95;64;72
96;95;56;72
90;95;56;72
107;52;64;92
101;92;72;76
107;44;84;95
52;48;72;95
95;48;84;95
95;66;64;84
110;60;64;100
95;79;79;52
76;111;70;64
100;103;78;56
72;76;72;111
79;52;84;103
95;60;52;72
95;95;79;71
64;72;90;102
111;87;64;76
88;95;58;64
80;84;88;86
92;103;111;95
79;64;72;96
111;62;64;90
111;111;111;111
70;76;88;111
102;80;64;72
104;48;74;95
95;95;94;111
95;64;96;111
111;107;87;87
64;72;80;100
111;111;111;64
104;64;80;111
79;64;80;106
111;79;64;88
102;111;111;119
119;64;96;111
74;64;84;110
95;64;80;106
102;111;78;64
84;95;64;72
102;98;90;84
92;79;52;72
102;79;56;64
76;88;95;95
69;64;92;102
111;66;64;64
92;111;95;64
96;75;64;103
111;103;95;87
68;84;84;80
96;111;111;64
80;111;111;87
64;92;108;111
68;64;64;64
64;76;103;95
70;64;80;84
95;92;72;80
94;52;64;86
95;95;107;111
111;64;110;111
111;111;96;80
84;98;100;102
110;95;64;80
110;52;80;111
95;95;111;111
110;123;111;111
78;80;100;111
119;79;84;111
116;111;79;68
72;72;72;76
84;88;88;88
88;87;52;76
90;111;95;79
64;68;72;92
103;95;95;111
111;64;80;111
107;66;72;100
79;64;64;80
110;111;111;111
95;68;96;111
79;64;96;111
111;72;68;96
111;111;111;72
76;84;84;80
100;98;107;111
111;64;84;111
100;88;84;80
88;100;98;106
111;102;84;80
92;98;102;94
68;64;95;95
79;48;80;111
70;72;107;111
95;64;98;111
111;111;104;119
111;64;96;95
64;88;111;111
111;66;88;111
95;87;64;72
111;56;80;110
111;95;68;64
88;95;64;72
88;92;94;111
71;64;102;79
64;84;80;95
111;48;92;111
87;64;88;111
95;64;76;110
95;75;64;92
111;64;96;111
107;111;111;119
108;127;127;127
127;127;111;80
124;72;96;104
116;123;127;127
127;76;96;106
88;100;100;106
119;68;72;96
111;79;64;64
88;108;111;87
66;64;64;76
80;95;69;64
107;87;52;68
111;56;56;64
84;95;95;71
52;68;90;95
102;95;76;72
103;79;56;52
80;84;72;72
95;79;48;72
95;71;48;88
95;48;68;92
95;95;70;52
72;63;64;86
90;95;87;79
52;64;64;72
95;95;90;72
56;58;63;44
72;79;40;64
86;47;56;84
94;95;95;67
64;64;92;103
95;52;72;103
95;64;80;94
110;95;87;66
64;72;111;79
64;80;102;95
70;64;84;111
87;64;64;72
72;82;84;80
95;95;56;64
76;103;95;79
52;64;94;95
87;67;64;76
111;79;52;64
95;60;48;68
94;95;79;52
88;79;52;72
103;48;68;95
61;48;64;84
95;95;95;79
64;68;64;68
80;87;48;76
95;54;48;64
88;79;40;64
84;95;63;48
48;68;95;40
72;54;48;68
84;95;95;94
103;63;64;94
107;111;58;64
90;58;64;90
95;75;52;64
92;44;72;95
95;76;56;63
50;48;48;74
95;44;76;95
79;48;84;88
95;95;56;64
100;55;64;72
68;72;72;82
95;50;64;94
79;44;64;86
95;63;50;64
95;79;56;48
76;79;48;82
95;95;95;60
64;72;84;95
95;79;52;64
88;55;72;94
95;75;48;64
94;63;68;95
63;48;72;90
95;48;64;84
95;103;107;102
84;94;110;107
111;95;95;87
64;72;84;111
87;64;80;100
95;64;76;96
103;111;111;108
111;64;84;111
74;80;111;79
64;72;80;111
52;80;103;109
111;68;64;72
90;103;107;102
102;95;64;64
100;111;111;111
116;95;64;80
111;87;64;84
102;95;64;72
100;95;60;64
88;79;52;72
94;102;111;95
70;64;68;84
98;62;64;76
82;107;111;95
103;92;64;64
76;111;95;56
92;95;56;68
80;111;71;52
76;92;95;95
52;64;72;68
72;84;95;95
79;56;64;94
95;88;94;107
95;64;64;88
111;64;88;95
64;88;111;95
64;68;80;102
111;58;72;84
90;111;95;64
96;70;68;102
111;95;64;84
111;71;64;80
94;100;94;102
111;87;64;76
110;79;64;64
76;79;52;72
72;90;92;92
88;95;48;68
103;71;48;72
95;50;64;72
95;79;50;64
92;63;64;103
95;103;111;100
96;87;72;111
87;70;64;64
88;87;56;64
80;111;52;72
103;71;64;90
103;111;95;68
64;64;52;68
103;103;95;103
110;111;95;79
64;72;96;95
79;64;72;111
111;79;64;64
72;88;88;111
95;79;64;68
92;52;64;84
95;95;102;111
71;70;64;64
109;71;64;90
111;79;64;64
84;103;111;111
111;75;64;84
96;100;96;92
111;79;64;102
95;64;72;98
111;64;68;100
95;56;72;103
75;56;64;64
84;95;48;72
94;63;48;82
95;46;56;64
72;95;79;54
72;95;87;71
52;72;95;95
103;95;87;79
64;80;111;60
80;111;95;75
64;72;72;76
88;94;82;76
103;71;64;80
102;95;87;95
95;79;64;76
100;108;111;111
102;119;95;64
96;111;95;111
119;111;72;80
96;119;118;114
127;72;88;116
123;111;84;76
88;116;111;74
68;80;111;111
87;70;64;80
108;111;98;80
80;102;111;95
64;80;88;103
111;64;80;103
111;95;64;80
119;64;72;88
111;52;72;76
100;71;64;94
110;95;64;64
92;62;68;103
95;87;64;72
102;79;64;80
102;107;111;111
111;79;64;80
111;111;111;95
91;76;72;111
111;79;80;119
87;64;80;88
111;95;64;64
110;74;64;80
100;111;111;95
64;96;106;111
102;100;106;106
111;87;64;102
111;79;64;64
88;79;52;64
80;103;87;68
64;88;88;92
84;103;95;111
111;95;64;72
111;87;64;88
111;64;68;84
80;76;68;76
86;95;48;72
92;95;79;48
76;110;95;64
64;111;87;64
64;68;72;84
111;58;64;90
103;54;72;95
94;94;92;102
111;87;64;64
92;111;79;64
72;111;79;64
56;72;80;107
95;52;80;95
64;64;92;95
52;64;52;48
80;94;95;48
68;95;63;52
72;95;95;75
64;111;62;64
84;111;66;72
111;64;64;80
111;56;64;95
111;77;64;72
94;95;111;56
84;79;64;68
92;111;103;111
95;79;72;96
104;111;95;70
64;72;80;92
94;100;106;111
70;68;64;56
72;103;111;95
68;64;68;100
110;100;100;84
76;95;64;110
111;95;95;64
96;87;64;80
100;95;78;64
84;75;72;111
95;71;56;68
98;95;64;64
84;111;64;56
68;103;63;64
84;87;64;106
95;68;52;64
103;95;71;64
96;95;56;76
94;111;95;79
64;64;72;88
106;103;111;95
87;95;95;111
64;96;111;76
68;88;111;111
64;80;92;106
111;111;79;72
104;110;111;110
108;95;80;110
111;111;119;104
96;127;95;68
96;123;111;76
72;84;111;95
64;96;106;111
111;95;72;108
111;95;72;64
92;111;64;88
111;111;103;95
74;64;76;96
95;64;88;111
64;64;52;76
107;111;95;64
84;111;79;64
80;98;88;92
80;111;71;64
84;107;111;111
111;111;64;88
108;111;119;111
119;103;72;108
127;68;80;110
111;111;64;100
119;64;72;84
119;95;111;111
95;68;96;119
119;95;72;88
96;110;119;119
123;87;72;102
127;87;64;80
118;87;72;96
119;111;64;68
96;95;64;80
111;111;111;111
79;64;92;111
111;87;64;88
111;87;64;84
111;111;119;111
68;80;92;111
111;72;64;84
111;87;66;64
80;111;68;64
94;87;56;64
72;103;79;48
80;95;52;64
76;92;72;68
88;95;63;48
64;76;95;91
48;72;101;103
100;84;72;64
64;88;95;79
54;52;76;94
95;62;64;72
95;80;84;84
90;111;79;64
52;84;111;95
66;64;64;80
92;95;79;48
72;87;64;88
80;95;103;103
79;64;64;92
111;56;72;102
79;91;111;108
108;111;119;119
119;91;78;68
96;127;78;80
123;111;91;72
104;123;111;87
72;88;106;123
75;72;98;102
96;96;111;111
110;100;100;104
116;111;103;91
68;84;104;111
111;95;76;79
79;68;76;92
95;87;95;95
87;64;96;119
95;76;64;88
111;64;80;104
95;87;71;64
106;111;111;119
111;127;123;127
127;119;80;76
88;127;127;127
93;88;116;119
111;127;127;127
84;100;112;122
127;127;127;119
111;84;80;108
127;127;111;88
88;127;78;96
111;127;95;72
88;119;95;78
80;127;64;88
116;111;111;111
111;87;87;79
64;88;110;119
111;95;95;95
78;80;90;111
119;111;85;68
96;92;100;111
95;78;87;64
88;111;71;64
88;111;71;64
92;95;64;80
96;111;91;64
88;111;111;87
64;80;106;111
79;64;88;110
111;111;87;72
119;111;64;96
119;68;72;80
106;111;111;104
119;95;95;68
80;100;108;110
111;111;79;68
80;92;111;79
72;119;79;64
84;111;71;64
80;111;64;80
98;111;95;64
64;84;111;95
79;64;88;111
111;111;119;111
116;127;111;95
80;127;72;88
118;111;95;103
111;95;76;80
100;95;64;80
104;95;64;72
108;111;95;64
80;111;64;76
92;100;111;95
103;111;111;111
103;68;88;119
111;111;111;95
76;110;119;68
104;111;68;80
111;108;110;119
103;90;111;127
127;119;90;80
96;127;127;103
72;110;95;72
90;111;76;72
96;111;95;95
79;68;100;111
111;119;127;127
127;127;80;100
126;127;127;111
88;127;80;88
118;111;72;88
114;127;118;104
100;88;88;104
119;111;72;84
111;106;111;119
123;127;111;84
80;119;111;76
84;127;68;88
117;119;119;127
127;127;127;127
94;88;104;124
127;111;84;116
127;126;116;127
127;127;127;109
84;106;127;127
124;127;127;103
80;80;96;108
110;127;127;127
127;80;100;127
87;80;96;100
114;119;119;76
80;126;79;68
108;95;64;64
102;95;87;64
100;111;75;64
102;103;95;64
80;111;111;111
107;119;126;126
116;88;80;88
110;127;95;68
96;118;111;116
125;127;127;95
80;96;106;111
108;127;111;72
96;122;119;125
108;110;127;85
80;80;96;111
111;95;95;72
72;106;110;92
92;119;95;79
68;88;111;111
103;111;127;76
96;104;111;123
127;127;127;127
127;100;84;116
127;127;126;127
119;84;108;127
72;106;122;124
114;120;116;96
80;127;76;72
127;64;80;96
111;111;78;64
88;111;95;64
92;111;95;64
88;107;100;100
106;111;111;70
88;111;111;111
111;95;79;74
72;104;119;77
88;119;74;68
96;100;103;111
95;111;127;127
123;88;86;84
72;88;116;103
76;64;96;111
79;64;64;80
92;76;84;92
88;103;95;64
90;111;111;111
64;88;119;111
87;64;84;110
95;70;64;64
88;111;111;111
111;93;68;102
119;111;86;72
100;111;104;102
104;119;95;72
88;111;111;64
92;119;119;95
88;127;64;84
104;111;66;72
119;107;111;95
86;84;123;111
95;111;127;108
88;88;98;119
123;114;110;124
127;86;72;92
108;119;108;96
98;111;64;84
119;111;111;76
84;102;119;111
72;88;116;111
68;80;88;119
111;108;110;118
125;123;127;111
84;88;123;95
80;111;95;68
111;119;123;119
100;88;106;104
111;117;111;87
72;110;95;68
88;111;111;111
95;68;96;104
100;111;119;111
111;95;103;78
96;127;95;80
127;111;68;96
122;127;103;72
100;108;119;123
127;123;108;106
108;92;76;88
118;119;118;96
84;68;72;92
111;111;111;95
64;88;104;88
80;111;70;68
100;100;111;104
111;111;95;70
64;72;100;111
79;84;111;70
64;88;111;111
111;111;96;72
72;76;94;107
111;111;111;110
119;111;119;104
96;104;111;111
119;119;122;111
95;84;96;96
118;119;110;100
104;127;95;72
88;126;87;64
96;119;119;111
91;72;88;110
111;111;84;76
110;111;111;119
95;91;111;123
96;72;80;92
96;104;108;119
119;111;87;68
96;108;119;111
111;79;80;110
118;106;96;96
123;64;80;80
88;111;111;70
80;111;111;95
74;72;84;108
111;78;78;66
72;104;95;64
88;84;72;72
88;103;103;95
80;90;100;111
87;64;64;92
106;110;111;111
111;95;72;68
104;95;64;84
104;102;111;111
95;72;92;119
95;95;87;64
80;84;92;104
100;92;96;104
100;72;64;80
94;94;88;80
72;72;72;68
72;95;87;48
64;64;64;64
95;95;95;95
71;64;64;84
95;95;100;84
76;64;72;95
48;72;95;95
111;52;64;76
95;95;95;71
64;88;111;87
68;64;76;76
84;80;88;95
48;84;95;54
64;95;95;56
72;94;111;87
75;64;88;100
88;92;92;111
78;76;92;84
76;76;95;103
111;66;64;84
111;95;103;111
100;90;80;90
102;108;84;90
111;95;64;72
111;111;111;111
119;68;84;104
119;119;119;127
127;107;90;80
96;127;87;72
96;111;119;111
111;119;119;100
96;96;96;100
96;106;111;111
111;123;122;127
72;108;127;111
127;95;80;104
123;118;124;127
111;88;127;111
76;104;126;127
111;111;126;96
88;104;127;78
96;108;127;95
72;96;111;87
68;88;117;111
79;96;119;111
87;80;96;96
98;118;111;119
119;127;95;72
124;87;80;108
111;72;64;64
88;111;111;74
80;111;95;64
80;111;91;64
80;76;84;111
70;72;92;109
106;92;68;64
76;107;95;71
64;68;84;103
58;68;72;72
95;79;71;52
64;92;95;52
64;76;82;95
95;87;70;48
84;103;103;110
95;66;64;88
111;111;87;79
64;88;111;77
72;110;95;64
76;111;95;95
64;80;111;95
68;80;111;111
111;64;80;111
111;111;110;100
92;92;108;111
104;96;102;119
111;64;88;108
111;79;68;72
92;84;84;102
111;111;111;111
110;123;123;114
104;110;119;87
72;88;88;92
108;111;91;68
72;92;111;87
64;108;95;87
64;88;111;95
64;108;111;64
84;92;84;80
98;92;102;103
108;102;92;88
100;111;111;79
64;68;96;111
111;111;84;64
64;84;110;71
64;102;111;77
64;80;88;111
111;111;84;64
64;72;84;94
103;84;64;64
76;86;94;95
107;95;95;71
64;84;109;110
111;95;87;64
92;111;111;111
111;95;68;88
96;100;102;96
84;90;111;95
95;64;80;100
111;95;111;111
74;88;111;95
68;104;111;87
64;88;111;64
84;96;96;102
111;111;119;111
111;72;80;110
111;119;119;111
111;95;72;80
118;95;68;72
100;104;108;110
119;119;111;74
88;119;95;68
100;119;95;64
96;100;88;100
119;71;64;64
80;84;90;107
95;64;84;103
111;111;111;104
96;84;88;96
100;100;96;108
111;95;64;84
100;108;100;88
98;111;79;64
84;110;111;75
64;72;84;86
107;103;109;111
111;68;80;100
111;96;68;64
64;100;107;111
111;110;80;72
88;111;111;95
64;111;111;119
111;119;127;127
103;95;80;108
127;123;98;88
108;110;111;111
91;68;80;110
119;111;123;95
72;88;106;104
123;119;96;80
96;106;111;111
108;96;84;106
119;79;68;88
110;111;111;87
64;104;106;92
96;92;92;111
111;64;72;94
111;106;92;88
96;102;100;111
111;111;100;88
102;119;95;68
84;106;111;79
64;80;96;111
95;64;76;98
79;76;102;111
79;72;88;110
111;64;84;111
95;64;84;111
87;64;84;111
111;111;100;92
92;88;96;111
87;80;111;110
108;119;119;123
127;72;80;96
106;96;80;88
119;66;80;88
111;111;111;95
64;100;111;87
74;64;64;64
94;95;109;80
64;56;64;80
103;103;107;111
64;80;102;111
79;72;98;95
64;80;72;90
111;111;111;111
103;111;111;111
95;84;122;87
72;96;119;111
64;108;95;64
88;111;79;64
92;108;111;95
64;88;111;79
64;96;111;110
100;102;111;79
72;92;111;111
91;64;80;88
111;95;64;64
88;107;111;64
72;88;111;111
78;64;80;104
111;64;64;90
111;71;64;80
111;66;64;64
111;58;68;95
95;79;95;79
64;72;108;87
64;80;84;107
111;111;106;111
111;64;88;111
119;87;64;96
111;111;110;96
96;98;119;95
76;106;127;95
68;80;104;110
119;95;68;110
119;118;122;119
103;96;127;93
72;84;100;100
119;111;111;74
80;80;84;111
111;102;72;64
72;106;95;71
64;80;95;52
88;95;64;64
84;111;111;111
111;119;111;74
80;84;100;111
108;119;111;87
72;96;111;111
76;72;84;88
104;108;108;95
64;80;94;111
71;80;111;103
95;78;64;64
96;111;87;64
68;80;88;92
111;67;64;72
80;90;95;95
58;72;111;87
64;80;95;100
111;56;64;72
80;64;68;68
72;72;80;82
78;68;76;95
79;48;64;88
95;44;64;72
95;79;58;52
64;95;111;79
52;80;79;64
80;95;95;103
111;79;68;64
72;111;68;64
68;84;103;95
87;64;64;100
95;52;68;94
109;71;64;100
95;56;64;84
111;52;72;102
87;64;84;111
95;110;96;96
111;111;111;110
100;119;111;87
80;92;88;92
104;111;64;80
98;111;75;68
84;108;95;87
64;84;95;64
84;111;95;79
64;88;102;111
111;108;84;88
111;64;96;95
66;80;96;111
111;80;111;111
95;68;80;96
100;92;72;68
88;111;95;79
80;98;96;110
110;111;111;111
127;76;80;100
126;87;72;100
119;95;111;119
95;79;72;88
116;95;70;64
96;111;95;64
92;100;72;68
80;94;98;94
107;71;64;64
106;48;72;95
110;95;64;88
95;64;100;111
79;68;103;110
104;111;71;64
92;100;92;111
64;64;88;108
95;64;80;88
108;87;56;80
111;107;87;70
64;72;76;92
107;95;103;79
64;68;76;98
111;66;64;84
111;70;64;94
111;75;56;72
102;79;52;68
106;48;64;84
92;95;75;64
84;90;80;76
102;75;48;68
102;95;63;48
80;111;71;52
72;76;72;86
87;48;76;94
95;69;64;88
103;103;98;80
88;80;72;95
111;69;56;64
86;103;103;92
92;107;110;102
110;111;111;119
119;111;74;88
127;64;96;111
119;74;64;84
119;64;80;111
95;64;72;110
111;95;87;79
68;88;111;111
95;72;100;108
119;91;68;72
110;95;64;80
111;68;64;64
72;80;76;84
90;94;80;64
48;64;95;71
48;64;68;95
46;64;95;63
48;76;95;79
63;48;72;95
87;48;68;95
79;48;72;90
95;95;63;68
109;48;72;95
62;56;48;72
103;48;84;95
95;63;58;48
64;84;94;103
111;95;64;64
80;72;64;64
64;64;86;95
48;72;94;95
111;54;52;76
95;62;64;84
95;58;52;64
72;64;48;64
84;95;63;40
64;64;78;95
63;44;64;72
95;95;63;48
64;95;95;95
87;64;98;95
107;79;64;84
111;64;64;80
111;79;64;80
106;95;79;64
88;111;56;64
84;76;72;84
95;95;103;72
64;64;95;95
48;80;111;48
72;78;95;95
103;87;56;64
88;82;72;68
76;84;92;95
95;95;95;111
111;95;68;64
102;111;95;95
79;64;80;88
111;64;96;111
111;64;68;80
100;103;111;102
104;111;111;102
92;76;80;84
102;52;72;103
107;95;111;111
119;95;64;80
111;111;119;119
106;122;116;108
110;123;126;127
127;111;103;80
100;110;110;127
90;80;72;84
116;91;72;104
110;118;119;127
103;72;80;102
96;119;119;127
111;84;127;87
72;88;119;111
87;80;118;111
87;64;80;104
111;64;88;111
95;64;88;100
111;111;111;95
64;72;80;106
111;64;64;98
111;71;68;90
107;92;72;80
86;103;95;95
95;64;88;92
111;79;64;80
106;95;87;95
111;111;87;72
92;84;80;80
98;111;68;64
88;102;94;111
95;68;64;64
76;80;84;103
107;94;76;68
72;68;56;64
68;95;79;52
64;64;64;68
82;84;64;78
79;52;78;87
40;64;84;95
95;40;72;95
79;79;62;64
94;95;95;95
68;64;64;72
76;64;52;72
94;95;76;90
79;64;68;68
95;63;40;76
95;48;88;95
71;48;72;103
95;64;80;107
95;68;56;64
84;95;92;94
100;111;95;87
64;80;108;111
111;111;102;88
102;111;102;106
96;108;119;79
68;96;111;111
127;95;79;64
108;79;64;92
111;111;95;79
64;80;84;98
88;111;111;95
64;72;110;95
64;64;76;96
95;64;96;95
64;72;84;92
111;64;100;95
71;64;68;72
88;107;95;52
68;88;107;103
111;56;72;98
111;95;64;80
100;95;64;56
72;94;99;103
111;64;88;111
111;111;111;64
84;88;88;106
111;75;64;64
64;72;88;103
107;95;78;64
80;111;87;79
64;72;86;92
108;58;64;80
88;103;103;100
94;111;95;64
80;76;80;80
72;68;48;64
74;95;87;61
44;64;84;95
58;52;44;52
72;95;63;52
48;68;95;95
95;48;68;90
95;48;68;78
92;40;64;80
95;79;63;48
72;95;87;44
80;111;75;64
111;64;100;111
79;64;96;95
64;76;90;98
102;80;92;103
109;111;95;71
64;84;111;95
64;72;103;103
102;111;95;66
80;84;88;108
111;111;111;107
68;84;116;111
119;95;72;88
110;111;106;96
84;88;111;111
95;72;96;111
87;64;80;100
111;64;80;92
80;92;111;108
102;95;64;76
111;79;64;88
111;64;64;80
84;88;111;95
95;64;72;109
79;68;102;95
68;68;92;98
100;80;72;68
103;44;76;95
48;72;107;95
71;64;84;110
95;87;64;72
111;64;111;64
64;68;84;102
111;70;64;106
111;95;64;64
104;64;80;111
110;111;117;119
111;72;104;126
111;111;111;95
87;72;104;127
119;111;111;111
72;96;118;127
72;88;96;104
116;95;64;84
118;111;95;74
80;80;64;64
72;94;111;95
64;72;88;111
87;64;94;95
87;64;102;111
87;95;87;64
80;72;64;64
68;94;95;79
52;64;88;95
62;56;52;68
76;64;64;68
72;95;79;95
59;48;76;95
103;52;72;95
63;64;95;63
48;64;76;95
95;59;64;94
95;95;79;52
98;60;64;88
90;109;95;95
95;64;96;95
64;64;90;108
111;64;72;104
111;111;95;79
68;72;84;106
111;103;95;87
72;88;111;111
87;68;92;108
119;64;111;111
76;64;80;104
111;64;88;106
111;95;64;84
111;64;84;111
111;91;64;88
111;64;80;111
111;111;95;72
111;64;96;95
64;84;111;64
88;102;92;92
103;111;66;72
111;56;76;111
64;64;80;102
111;56;68;106
103;111;66;68
96;71;64;68
92;95;52;72
92;95;52;64
84;71;48;90
95;48;76;95
95;95;60;64
92;95;87;95
70;64;104;87
64;64;76;84
72;103;95;95
52;64;84;95
111;95;79;64
92;79;64;103
95;111;111;78
80;100;108;111
71;68;72;92
84;100;100;111
87;64;64;88
111;64;88;111
79;74;64;72
111;48;80;95
56;52;64;102
87;48;82;103
95;95;64;72
111;48;68;111
79;64;64;56
68;86;92;94
92;111;95;64
80;84;90;92
107;111;79;64
84;100;84;90
102;95;77;68
64;64;84;109
110;111;71;76
111;64;80;109
95;79;68;92
111;79;64;64
102;95;79;64
68;72;72;92
84;95;92;72
72;72;76;95
95;95;103;111
95;64;80;88
88;111;111;111
95;64;92;111
95;64;64;64
106;56;72;84
103;79;52;80
95;103;101;90
80;94;103;111
68;64;88;103
107;111;111;64
80;76;68;84
102;110;111;111
103;64;84;92
111;111;77;64
100;56;80;94
96;111;74;64
88;95;64;64
92;103;103;95
79;64;84;111
79;64;80;92
94;111;64;64
80;80;84;103
95;64;90;111
95;103;95;111
71;64;80;84
76;88;111;95
64;64;90;106
111;95;95;111
64;80;119;95
91;111;111;76
80;104;119;95
68;84;117;119
111;64;80;88
108;95;68;64
72;80;76;88
94;111;111;111
111;87;64;84
108;107;96;88
96;111;95;95
64;84;100;95
64;96;111;79
64;96;111;91
68;64;80;100
111;95;64;64
80;88;107;111
111;64;64;104
109;111;111;110
92;111;119;111
68;68;72;80
88;111;91;87
64;64;80;100
111;111;92;72
72;94;111;56
72;110;111;71
64;68;68;80
111;48;64;88
103;79;52;64
88;103;103;107
111;95;66;72
106;111;111;111
111;119;119;127
118;110;114;116
112;111;72;88
110;95;68;84
92;111;111;79
72;116;95;94
68;64;80;88
100;96;102;111
111;72;64;80
92;107;100;102
96;106;110;111
111;95;84;64
80;111;111;91
68;64;84;111
87;64;88;88
88;111;95;79
68;64;64;80
88;107;111;111
111;64;84;100
111;64;64;76
100;71;64;84
80;84;84;95
103;95;58;64
92;111;95;66
64;64;64;84
103;94;92;109
111;64;72;103
111;111;111;111
87;64;80;98
102;111;119;111
87;64;92;111
111;119;76;68
104;95;64;64
72;72;84;107
106;95;66;72
111;95;64;72
110;52;80;111
66;64;80;111
95;64;76;94
111;79;64;92
111;64;64;72
102;63;64;88
95;48;72;95
103;87;52;64
106;71;52;68
98;95;48;80
95;48;80;95
48;72;76;95
95;56;64;103
87;52;64;95
95;48;76;107
95;84;84;88
106;48;64;90
95;111;95;66
64;68;88;107
95;102;76;64
76;72;68;64
94;79;48;48
68;80;95;95
95;48;68;90
95;70;65;48
68;90;111;87
78;79;60;64
88;111;95;79
64;80;110;108
111;111;111;70
72;88;100;102
106;111;111;111
111;68;96;119
111;111;110;106
123;94;64;100
123;79;72;88
119;64;98;111
85;64;72;96
111;87;64;64
72;76;82;94
103;62;64;92
100;95;84;84
111;70;56;72
110;95;64;64
92;48;64;95
95;90;80;92
95;52;84;103
103;66;56;56
80;88;82;92
103;95;67;56
64;76;106;79
56;64;76;92
95;54;64;88
95;95;111;66
64;82;95;111
95;95;87;64
84;95;64;98
108;92;98;111
91;64;76;98
111;111;111;111
119;64;80;119
111;96;72;95
79;64;88;106
108;108;96;96
110;95;64;72
84;111;95;79
64;64;56;64
76;64;72;92
103;70;48;68
95;63;64;84
95;48;64;92
76;95;95;95
111;56;76;111
95;87;95;64
72;100;111;95
68;68;68;88
92;58;72;100
107;106;110;111
95;64;64;80
108;95;64;84
110;79;64;88
108;111;111;95
76;64;80;80
80;111;95;64
80;111;111;111
111;110;104;119
119;111;68;88
110;123;103;72
80;96;111;103
72;66;72;84
111;56;72;92
88;92;102;100
109;111;111;96
96;119;111;111
86;68;88;116
111;111;127;119
111;91;72;84
106;111;68;80
111;64;72;96
100;103;92;84
94;79;64;84
111;95;95;95
95;64;64;88
111;78;64;84
88;111;79;70
64;92;110;100
102;95;64;92
102;84;72;82
106;58;64;76
103;95;95;64
68;80;107;58
76;95;54;64
92;58;64;80
95;95;100;95
84;111;95;69
64;100;95;95
95;64;72;111
111;71;64;72
111;58;64;64
80;88;84;95
95;95;92;92
100;95;95;95
95;64;80;111
111;111;84;64
68;106;79;68
111;111;111;79
72;119;111;118
106;118;127;111
80;110;108;104
127;95;72;80
122;66;72;119
95;111;108;96
88;96;100;104
111;79;64;98
111;95;79;64
96;95;64;94
111;71;64;94
111;111;111;111
111;95;64;84
104;106;88;88
88;111;79;64
100;110;111;111
111;111;64;80
102;111;111;102
111;95;64;92
111;111;117;111
88;104;111;119
119;123;123;127
127;90;80;108
110;127;111;103
78;72;72;104
111;118;114;127
95;72;80;104
119;76;64;80
111;70;64;80
106;100;72;64
72;95;52;64
94;102;99;107
111;71;64;84
100;111;111;110
119;95;68;68
84;111;111;95
95;95;68;64
76;92;102;102
111;64;64;88
110;79;64;88
96;95;64;80
88;88;111;95
95;95;64;72
96;111;111;111
111;91;68;80
104;111;72;64
98;69;80;111
111;111;102;104
119;74;80;104
106;119;103;84
72;111;111;111
95;119;92;72
88;79;72;88
103;111;111;111
111;87;64;92
111;64;80;119
68;64;72;96
87;70;64;64
80;95;67;64
80;92;100;111
95;64;64;102
111;111;111;119
111;95;64;80
108;111;111;127
111;79;72;92
104;108;111;104
111;79;72;102
95;64;88;111
79;64;64;64
94;111;87;64
72;111;95;87
64;92;95;64
72;111;52;88
111;111;111;95
76;72;64;84
92;111;64;64
88;111;79;64
98;111;95;79
64;64;64;64
96;111;95;64
80;111;95;79
64;72;80;111
111;87;64;84
111;111;95;68
84;111;64;88
104;111;111;110
108;95;95;95
64;84;110;119
111;111;95;68
88;119;108;88
84;111;64;88
108;87;64;64
64;80;72;82
103;86;76;68
80;95;54;52
68;80;80;72
88;95;52;64
107;56;52;72
95;63;48;68
94;80;72;80
95;71;48;64
92;79;48;52
76;95;63;44
80;95;75;48
68;79;44;68
95;95;50;64
95;62;64;86
95;50;64;80
95;63;48;72
72;95;79;48
72;71;48;86
95;84;86;95
95;95;87;64
72;108;95;64
92;60;72;88
79;64;102;95
64;64;76;111
79;64;94;79
64;80;84;84
80;95;95;52
64;92;95;54
64;94;103;95
79;79;56;64
96;103;103;98
111;95;64;80
111;111;79;64
96;111;79;64
100;70;64;84
94;87;64;76
108;95;79;64
76;95;56;72
107;102;106;111
111;95;70;64
98;106;88;88
92;95;64;64
84;102;88;76
100;79;52;72
84;78;95;103
101;111;79;64
80;95;68;56
64;80;111;98
80;100;111;111
64;80;111;95
64;84;111;64
100;111;111;95
91;64;68;80
111;79;64;88
111;79;68;111
64;104;111;111
111;95;76;64
84;111;64;92
111;66;76;111
95;95;95;79
80;98;100;111
95;103;95;103
95;79;80;110
123;111;95;74
84;110;118;119
79;87;74;80
110;111;68;76
100;79;68;96
111;64;72;94
111;79;64;68
88;92;102;109
111;95;68;66
72;100;88;76
108;95;64;80
84;76;88;111
56;64;64;92
95;48;72;92
95;69;70;52
64;88;95;80
68;95;95;87
56;64;94;95
79;79;79;64
64;72;100;95
79;95;98;72
64;72;76;86
103;95;79;64
76;111;79;56
80;95;52;80
111;95;111;111
119;95;68;84
100;88;80;92
102;111;111;64
64;80;92;110
111;95;64;76
111;95;95;95
103;111;95;82
64;84;100;111
111;111;111;111
111;95;72;88
126;95;80;111
125;111;111;68
120;95;72;72
96;111;111;111
116;95;68;88
119;111;95;74
76;127;76;64
80;111;78;72
100;87;64;84
102;106;106;108
111;111;91;64
88;111;95;64
98;95;64;80
84;111;111;111
79;79;70;64
80;111;95;64
76;111;64;80
102;92;111;111
111;95;70;64
88;111;79;74
64;92;111;95
64;92;102;111
76;64;72;84
92;88;111;111
91;95;95;87
64;88;111;95
64;96;75;64
108;91;79;68
80;95;64;76
94;90;98;98
106;95;64;72
88;98;100;100
111;95;64;64
72;100;102;111
111;95;64;72
92;111;95;64
96;111;64;96
111;100;80;88
104;87;64;88
111;79;64;72
108;95;75;64
98;111;111;111
79;78;64;80
111;96;80;92
92;111;64;64
92;88;92;88
84;107;95;79
64;64;80;92
111;95;95;76
64;88;103;95
64;88;110;111
95;95;68;68
104;111;111;119
119;108;100;96
88;102;106;119
79;80;104;104
111;119;87;72
104;110;111;111
119;111;72;111
95;72;104;108
100;119;103;64
80;100;108;111
119;111;95;68
88;92;104;106
118;95;68;88
111;111;94;64
100;95;64;80
111;111;79;64
102;111;64;88
104;80;64;64
92;91;52;76
95;60;64;88
103;103;100;106
88;80;98;111
111;111;95;74
64;80;88;106
111;111;111;102
102;127;78;72
104;119;95;70
80;104;111;111
119;127;111;72
100;119;127;111
78;88;96;116
127;111;94;78
80;127;64;80
96;104;110;111
100;111;111;79
72;111;111;79
72;123;111;68
127;95;68;80
100;95;72;96
111;111;119;127
87;72;88;104
111;108;111;111
95;111;111;91
84;119;119;119
116;127;127;94
80;88;96;96
123;111;79;68
84;111;111;91
68;72;64;64
80;84;107;79
64;98;95;68
64;64;64;92
111;95;95;64
88;111;107;111
64;88;111;111
68;72;106;111
87;78;64;64
88;110;103;95
64;84;100;111
111;95;111;95
68;72;88;96
111;87;64;80
109;111;74;64
80;111;111;95
95;64;92;111
103;119;116;108
110;127;72;84
119;127;95;72
106;123;111;95
95;72;104;111
91;68;80;102
127;111;111;103
72;127;91;72
92;104;119;118
111;118;127;127
127;127;84;96
127;119;103;80
96;127;95;72
96;122;125;119
127;95;76;100
127;127;127;127
120;96;96;108
119;127;127;127
127;116;104;108
116;119;104;96
100;127;77;72
88;119;103;79
64;88;104;111
76;64;84;110
111;111;110;117
111;76;72;96
110;111;111;95
68;96;119;118
127;91;76;68
96;127;79;72
96;111;106;111
111;111;95;83
79;72;92;100
119;119;94;72
100;111;111;79
72;123;119;86
68;84;118;111
68;72;96;108
100;100;110;111
111;118;96;96
111;123;111;74
96;127;76;80
106;109;106;110
102;127;84;64
100;111;108;102
119;119;123;119
72;88;119;111
79;72;118;111
79;68;90;119
95;83;64;84
111;111;87;77
80;111;64;98
111;70;64;92
111;111;102;111
119;119;127;111
72;116;111;72
112;125;127;127
127;127;127;86
96;104;116;122
114;127;95;93
86;80;108;116
119;119;104;100
104;96;80;80
100;95;95;68
64;76;88;98
87;56;68;72
80;80;72;92
95;95;103;95
80;80;72;76
95;102;110;111
111;111;95;74
72;119;111;68
96;119;111;79
80;126;119;68
88;92;84;92
111;95;111;95
95;91;95;72
72;111;103;76
64;92;88;72
72;111;79;64
64;76;103;79
64;111;95;58
72;68;58;87
103;110;95;64
92;102;111;111
111;95;72;72
100;111;111;111
64;110;119;119
127;119;90;80
80;126;111;84
68;80;104;111
64;100;119;111
111;64;96;102
106;111;111;119
74;80;88;111
95;95;111;111
127;79;72;80
100;119;119;111
87;88;123;95
68;111;95;80
108;119;119;95
72;96;127;76
72;90;92;111
87;72;110;95
64;84;84;80
94;111;95;87
64;88;104;111
111;111;127;95
72;96;119;71
84;117;111;64
102;106;119;119
111;111;95;82
72;96;119;95
68;98;123;119
79;80;110;111
72;127;79;76
80;104;111;111
64;111;95;64
110;111;119;111
127;119;127;127
124;104;104;127
127;127;127;119
80;104;127;119
111;127;116;108
130;79;72;88
110;111;119;111
111;103;103;95
72;116;79;88
119;118;118;127
127;120;96;80
84;84;98;119
87;68;68;72
96;103;111;79
64;100;111;64
64;84;92;100
111;104;88;84
68;72;88;111
95;87;95;111
119;103;76;64
88;119;76;68
108;111;79;64
117;111;111;111
64;96;106;119
111;64;88;119
79;64;88;111
95;64;76;96
110;111;111;108
106;110;111;104
96;80;80;108
111;108;80;88
106;111;91;64
102;111;119;95
74;84;111;95
70;88;111;111
119;123;127;111
72;125;111;72
96;96;100;104
119;111;108;96
96;102;96;102
111;85;70;64
80;76;80;110
95;64;64;76
94;95;66;64
80;103;111;95
64;88;95;87
68;64;72;96
95;52;76;111
110;103;88;72
72;107;95;60
80;111;111;79
64;76;106;66
72;111;95;93
73;80;111;79
64;104;87;64
80;98;106;111
108;111;111;95
70;76;88;111
71;84;111;111
95;64;72;80
106;111;106;104
104;111;95;70
88;111;111;111
95;80;119;119
126;127;120;104
100;119;119;124
127;100;80;68
88;106;111;119
111;110;127;86
80;88;104;119
127;103;72;80
106;111;87;64
88;110;103;64
88;106;111;111
110;96;80;76
88;96;110;111
95;64;96;102
100;111;111;95
70;96;111;64
100;96;88;108
111;68;64;64
80;84;88;98
111;102;84;68
64;92;79;48
82;111;48;76
94;103;103;110
111;107;111;111
111;68;84;110
119;123;119;104
100;127;86;72
108;119;78;64
80;106;111;72
72;98;111;87
64;80;88;111
111;98;68;70
64;64;80;111
111;95;111;119
127;64;80;104
119;111;100;110
123;95;72;96
123;119;127;111
111;103;111;84
96;118;127;127
111;76;96;110
127;76;80;100
108;126;119;123
127;118;88;76
88;104;123;119
111;111;127;122
112;120;127;127
127;116;88;88
72;88;88;104
108;92;76;84
92;92;111;64
84;111;70;64
80;111;65;64
88;94;88;84
88;94;80;76
88;95;109;87
64;76;92;95
110;94;90;111
87;64;80;108
111;106;88;80
88;102;110;111
87;72;100;111
111;64;72;92
104;92;88;92
100;95;56;64
88;111;95;64
72;104;79;64
100;109;111;111
95;64;72;98
111;111;92;88
80;104;95;64
84;111;111;110
119;95;79;66
72;96;111;87
68;68;100;111
95;72;88;111
79;72;92;96
94;98;111;95
95;79;64;64
88;106;111;64
88;106;98;92
98;102;92;102
111;79;64;96
111;103;92;88
84;72;68;88
111;64;48;80
103;95;75;64
88;88;84;64
68;103;95;71
64;94;111;87
64;72;76;90
106;88;76;72
80;107;95;56
64;106;68;64
111;66;64;100
95;103;94;80
72;72;94;111
95;95;74;64
111;79;64;80
108;86;64;56
50;48;64;84
92;88;76;64
64;44;40;40
84;40;48;64
95;55;36;64
95;95;71;44
64;90;95;95
95;64;95;111
111;95;64;76
102;100;88;84
106;102;100;106
102;88;68;64
92;71;64;103
68;72;109;71
52;82;71;52
95;95;88;80
95;95;71;64
72;80;103;95
71;64;84;110
111;111;87;64
104;95;64;68
88;92;98;111
111;64;72;88
110;110;111;79
64;102;111;111
111;103;95;87
72;88;118;119
119;100;84;72
88;106;111;111
111;100;80;80
111;95;64;88
98;84;68;72
92;103;111;79
64;100;79;64
104;107;92;76
76;76;92;88
90;95;86;102
98;82;72;76
80;92;95;95
79;64;80;88
94;111;103;95
64;88;95;77
64;94;111;95
95;110;80;68
68;76;111;111
87;64;80;111
64;64;80;111
95;73;64;84
111;64;64;72
95;90;64;64
64;64;64;76
92;72;56;64
64;56;56;76
95;79;92;88
103;71;48;64
103;95;103;111
111;78;64;80
80;96;95;60
72;111;52;72
111;70;64;88
111;66;64;80
100;92;84;100
95;56;64;68
88;94;109;79
64;107;60;76
102;103;95;109
91;64;84;111
95;64;106;111
70;64;64;90
111;64;72;100
111;103;111;119
123;95;79;76
108;119;127;111
95;84;124;95
72;88;119;111
103;80;114;95
78;72;64;72
84;88;84;80
84;94;95;87
52;76;102;107
111;95;64;88
111;111;111;111
95;64;96;127
68;96;111;79
68;64;80;108
111;64;64;84
111;69;64;74
111;95;75;64
88;92;80;76
80;86;107;79
56;64;80;88
111;78;52;68
92;111;95;56
68;80;111;95
79;79;111;111
111;111;98;78
111;95;74;64
92;88;80;80
100;79;64;84
111;64;68;90
95;52;76;111
60;72;92;100
102;111;79;64
72;76;92;109
108;111;111;111
111;92;68;64
82;111;79;64
72;80;86;95
111;54;72;100
95;52;80;94
90;72;64;64
80;76;68;86
95;48;64;72
88;84;64;48
86;63;44;64
90;92;95;87
95;75;52;72
111;71;64;92
92;64;64;72
111;50;52;68
92;95;95;79
64;72;72;80
92;95;79;58
68;86;103;95
75;48;72;84
111;58;48;72
95;79;48;72
95;48;72;88
95;95;71;56
64;76;103;59
48;72;95;79
48;68;86;95
95;71;52;80
94;84;84;80
80;95;48;76
95;92;80;72
72;72;80;95
95;52;64;80
95;95;103;111
79;84;111;56
80;100;110;111
64;88;103;108
111;111;111;111
111;80;111;119
111;72;88;127
95;72;100;111
75;64;80;96
111;95;79;64
72;111;95;75
64;84;111;64
64;76;82;111
95;64;98;111
111;64;80;100
111;66;64;64
80;100;111;64
76;94;95;79
64;64;76;92
90;64;48;48
48;52;64;68
72;72;64;72
78;95;40;64
95;40;80;95
48;64;90;79
50;68;95;95
95;56;52;72
88;80;76;68
78;79;54;48
68;84;72;72
90;95;79;48
72;68;64;94
95;87;79;48
64;94;103;79
68;52;76;94
102;84;64;64
80;110;60;48
64;80;103;95
87;56;64;80
102;95;64;66
71;52;64;88
103;79;48;64
84;95;54;64
92;95;103;111
111;95;64;80
110;111;111;118
116;127;127;127
127;80;88;104
127;95;80;104
116;119;122;127
95;72;118;127
127;72;96;119
127;79;84;116
127;87;72;96
111;119;111;95
78;84;104;119
127;68;84;127
64;100;95;68
68;64;64;88
95;64;107;95
71;64;80;103
94;82;76;64
76;94;103;95
56;72;111;75
64;64;86;107
111;111;111;111
110;127;119;95
82;88;100;106
88;72;64;80
106;111;102;84
80;100;111;111
64;80;108;111
119;64;72;88
111;64;76;88
100;95;64;88
111;64;94;79
64;90;103;79
56;72;88;95
52;64;72;84
102;87;67;64
64;68;76;84
88;78;64;64
82;95;95;56
64;82;82;95
87;48;64;88
95;64;94;95
79;70;64;80
102;111;95;64
88;106;111;71
76;76;64;80
107;58;76;111
79;72;111;65
64;92;79;64
92;107;111;111
95;64;72;96
111;64;98;95
64;68;64;80
106;109;111;106
92;88;111;111
119;95;87;68
68;87;111;111
127;74;80;114
123;87;72;96
96;84;80;92
111;64;68;106
111;70;64;84
111;56;72;84
110;70;64;98
95;56;72;88
111;63;64;90
111;64;64;80
84;68;52;44
68;84;95;79
63;48;72;95
54;64;68;76
88;68;64;76
72;80;92;95
79;64;80;103
95;71;52;64
88;95;111;95
66;64;88;111
110;106;96;104
111;111;74;84
119;64;72;84
104;95;71;64
72;72;80;103
111;70;64;72
88;111;79;52
80;95;56;72
95;52;72;95
63;68;111;77
48;80;92;94
103;95;79;71
64;64;64;76
106;79;56;64
92;95;88;94
102;95;52;80
92;72;80;95
111;87;64;64
94;103;102;110
111;79;64;111
79;72;104;111
95;64;92;111
111;64;100;100
100;111;111;111
111;80;104;119
127;107;72;88
125;95;68;88
116;95;64;88
119;64;80;84
111;52;82;111
95;68;110;111
79;68;64;80
88;76;64;64
72;94;103;103
91;64;64;92
95;48;68;107
95;64;72;94
111;52;72;76
111;64;84;103
95;75;79;64
68;76;88;95
62;64;88;80
80;68;64;72
76;68;68;72
91;95;58;44
64;64;64;64
84;79;40;64
86;95;95;95
95;48;84;95
71;52;72;111
71;64;102;95
56;64;84;95
48;64;76;90
103;95;111;111
111;64;90;106
111;111;111;111
95;72;106;119
125;127;127;119
95;96;127;90
96;124;127;87
96;88;80;96
126;79;64;72
111;64;72;92
110;95;95;71
72;76;96;111
79;64;64;80
108;48;80;95
111;79;64;64
111;64;84;111
75;64;92;109
111;64;64;80
110;71;56;68
95;79;48;76
102;95;69;64
96;79;52;72
111;58;64;103
79;64;100;103
102;111;64;80
108;79;64;80
111;64;64;72
92;56;64;80
111;52;64;92
95;64;84;111
79;64;84;95
111;56;88;111
71;68;100;69
72;72;72;72
80;95;63;48
72;95;79;71
60;66;71;48
76;87;64;84
88;68;76;95
62;64;84;95
75;56;84;95
48;68;95;95
95;54;64;84
94;79;48;72
103;87;52;80
102;79;48;72
95;54;64;95
95;68;111;111
111;91;79;64
96;56;80;107
95;75;64;80
100;95;79;56
64;94;111;95
64;68;102;95
52;80;94;111
56;72;98;95
58;76;88;95
48;64;80;95
95;87;52;64
95;95;60;64
102;107;111;111
95;64;88;108
95;64;92;111
78;64;88;111
111;108;104;118
111;72;88;100
119;119;119;111
107;72;80;106
127;79;72;88
108;95;64;111
111;64;84;88
92;95;95;111
111;118;127;95
72;72;96;111
119;72;88;119
74;72;100;111
111;79;64;76
106;71;64;84
100;111;79;64
80;88;80;72
84;103;95;111
111;64;64;84
111;79;64;64
92;79;52;64
72;88;94;102
95;64;84;103
103;111;95;70
80;100;98;106
111;87;72;110
75;64;80;103
110;95;64;80
96;95;64;84
111;58;64;84
88;80;72;72
76;92;86;72
76;56;63;75
44;64;95;95
95;48;72;90
103;79;48;64
76;95;95;79
66;64;80;110
71;64;84;111
75;64;94;95
56;76;111;79
64;72;80;103
95;64;98;87
56;72;100;111
79;64;110;87
64;72;100;95
70;64;72;88
106;95;91;70
64;64;68;84
111;71;52;76
102;56;72;107
54;80;88;103
48;64;84;94
103;95;58;64
98;63;64;80
76;64;64;80
94;40;48;64
88;79;87;63
64;86;78;82
92;79;62;48
64;80;86;86
68;95;95;58
68;103;95;56
68;92;111;79
56;64;68;76
72;88;95;95
79;64;80;107
95;79;64;72
92;48;76;95
56;52;68;82
95;48;48;72
94;95;75;79
54;48;72;95
79;66;52;72
95;59;48;68
95;50;64;76
94;55;64;95
103;57;64;88
95;48;64;84
95;50;64;76
86;86;94;103
79;68;52;72
107;48;64;95
87;63;48;72
102;44;64;84
79;48;64;72
95;40;64;80
95;79;52;40
68;95;95;95
111;111;111;111
68;72;88;108
111;95;64;76
88;92;96;104
111;111;111;72
80;80;68;72
72;94;107;111
68;64;72;88
111;56;64;72
84;87;60;48
68;95;79;44
88;62;48;72
95;71;48;48
84;47;48;84
95;95;95;95
107;56;84;111
111;64;76;94
111;64;80;111
87;64;64;94
106;79;64;64
88;95;52;64
68;64;64;76
76;84;95;95
102;79;52;64
94;79;52;64
111;52;103;48
68;94;111;111
66;64;90;111
95;64;72;94
111;76;64;88
111;64;92;95
64;88;88;94
111;77;64;64
84;71;64;80
88;103;111;111
111;64;92;111
79;64;80;111
71;64;88;111
111;91;64;104
95;64;88;108
111;64;72;111
79;64;80;92
90;94;111;79
64;64;72;107
79;56;64;80
103;79;48;64
68;76;95;95
48;48;64;95
59;48;64;76
95;40;90;79
44;64;95;63
52;48;48;56
90;95;79;71
48;48;64;86
72;68;78;95
95;48;72;95
63;48;72;95
95;48;64;88
95;79;75;62
64;68;72;84
95;79;48;80
92;75;48;72
95;52;64;84
86;95;48;64
84;95;71;64
111;48;76;103
95;56;64;72
88;84;72;88
95;48;64;68
78;95;54;44
68;84;95;40
84;40;64;86
63;64;72;94
95;63;48;64
95;95;95;95
103;95;70;64
84;111;111;95
64;64;96;111
95;73;64;84
98;111;111;111
95;64;64;104
111;64;80;94
103;111;111;111
79;68;76;80
92;111;111;111
95;64;72;84
108;79;64;90
111;64;92;100
92;111;95;64
64;64;64;64
88;95;95;95
111;64;80;92
111;95;95;79
72;96;92;102
111;111;111;95
68;68;64;80
111;111;79;64
100;66;64;100
111;95;111;111
111;68;104;111
68;72;80;96
111;64;88;110
95;64;72;84
111;48;72;92
100;111;95;95
111;111;95;94
68;88;123;95
64;72;84;108
95;64;92;111
95;64;92;111
95;74;66;64
88;48;72;103
95;95;111;111
111;64;96;100
104;111;76;64
80;88;72;76
102;95;71;64
103;56;64;76
94;95;54;48
72;79;40;76
92;95;95;95
70;52;72;111
95;111;111;111
64;68;64;84
103;110;95;64
84;79;64;92
95;64;64;76
111;52;76;100
103;95;71;64
80;111;75;56
76;95;48;74
103;48;72;92
103;95;95;87
64;64;72;111
58;80;102;111
95;71;68;92
111;87;64;80
111;64;96;95
56;72;88;103
95;64;82;111
56;76;111;95
74;75;64;76
92;102;92;84
92;50;68;103
95;68;52;64
95;48;64;86
86;84;78;76
95;40;72;63
48;80;95;79
79;71;52;48
72;92;95;79
64;76;86;95
107;87;56;72
92;79;60;64
95;95;102;90
107;54;64;72
92;95;79;56
68;95;111;95
71;64;88;106
79;64;64;92
95;56;64;80
92;44;72;95
103;70;56;64
76;95;50;72
95;70;58;48
72;79;44;64
95;71;48;48
68;95;79;54
52;64;88;95
71;48;64;80
84;84;72;72
78;47;64;68
88;95;95;95
103;62;64;88
111;71;52;64
94;91;75;71
56;64;64;76
92;60;48;76
95;95;95;103
95;52;72;95
100;107;111;94
72;64;63;48
102;75;48;48
72;95;95;71
64;92;102;111
95;64;64;72
80;103;94;103
111;48;76;103
111;95;87;70
64;79;103;108
100;108;119;111
64;72;80;110
111;111;74;72
119;64;76;108
111;111;95;76
84;79;64;80
88;98;111;95
64;72;72;80
106;95;95;78
64;64;58;64
80;92;95;88
100;54;72;111
71;64;94;107
111;56;80;96
94;103;109;111
64;72;96;111
95;64;64;84
111;64;76;103
71;64;76;80
94;48;64;103
95;75;64;88
111;52;64;72
84;95;87;48
80;71;48;84
95;48;64;95
48;44;64;72
95;87;75;48
74;63;48;84
79;44;64;76
76;95;79;48
72;78;95;79
52;76;80;94
94;95;95;79
52;64;72;92
111;71;52;64
94;54;64;111
62;64;68;72
64;92;95;55
64;103;95;52
64;103;95;78
56;56;64;76
103;58;64;72
68;82;94;95
95;48;68;95
79;64;90;95
71;60;52;64
84;95;79;48
72;71;48;48
76;79;79;63
48;48;52;64
86;63;40;64
95;47;64;92
95;95;95;111
87;64;64;100
111;64;72;88
107;56;72;100
95;56;72;88
101;50;64;82
103;75;48;52
80;40;64;78
95;95;79;63
64;76;84;84
95;95;95;95
95;95;95;72
68;64;72;100
111;66;64;80
111;64;96;95
56;64;64;103
95;79;56;68
100;79;64;88
95;95;95;56
84;67;68;103
95;64;80;103
87;64;64;88
111;52;72;111
71;48;74;94
103;111;111;95
78;85;70;64
80;100;111;111
79;66;68;80
102;111;95;64
88;87;64;64
64;82;110;87
79;66;68;75
87;77;64;72
98;63;64;80
103;95;95;111
110;119;111;76
72;80;108;111
103;78;64;76
111;70;64;84
102;66;68;111
95;79;64;76
102;79;64;100
111;71;64;92
111;79;64;56
76;92;102;111
111;64;80;96
111;79;70;70
64;79;111;111
110;119;111;79
72;84;96;111
119;111;84;76
80;111;79;64
96;111;95;64
88;52;74;111
95;66;64;76
107;64;64;76
111;87;64;56
64;72;95;95
60;48;68;95
95;71;48;76
103;95;103;80
80;79;52;64
94;103;79;52
88;75;70;52
92;95;52;64
88;79;52;64
88;88;72;68
84;63;48;78
95;87;79;95
95;64;76;98
111;64;88;102
110;79;64;72
111;64;64;94
95;64;64;110
111;64;68;111
79;64;84;111
111;111;87;64
100;71;64;76
102;111;111;102
80;84;96;102
111;87;64;80
88;79;64;80
109;87;64;72
80;71;64;92
79;64;95;103
95;95;79;78
64;64;72;84
84;95;71;48
72;103;107;103
106;95;87;71
64;80;108;95
64;111;64;96
111;64;84;100
111;95;64;72
108;64;76;84
111;52;76;95
102;111;95;95
68;64;74;64
80;111;111;119
87;64;72;88
102;111;111;111
111;111;64;84
119;64;72;80
88;111;95;64
100;111;95;77
64;111;87;64
80;88;84;94
79;78;56;64
110;56;64;68
94;79;48;92
95;48;72;95
95;60;48;76
103;107;95;95
68;64;68;111
79;64;80;111
52;88;111;66
72;94;98;106
111;79;64;88
111;64;72;111
111;95;64;88
110;100;88;88
111;77;64;64
84;95;79;79
75;79;79;66
64;92;111;111
111;87;64;68
88;111;79;64
80;95;64;88
111;64;64;80
103;95;64;88
111;95;95;64
84;78;64;80
88;102;95;77
64;111;111;111
102;88;64;68
64;64;64;76
98;103;95;68
64;111;103;95
79;64;80;80
94;95;79;56
76;107;95;111
111;95;68;80
119;79;64;80
104;79;64;80
111;95;79;64
100;95;64;72
110;75;64;80
95;64;64;90
103;95;79;75
95;95;71;64
72;84;88;94
92;95;64;92
95;71;64;72
105;71;52;84
111;52;72;103
110;87;64;72
92;111;95;52
80;87;64;80
111;87;64;76
111;56;64;95
111;95;111;110
100;127;78;68
100;95;64;72
111;70;72;111
95;64;64;88
111;87;66;64
111;111;98;84
80;111;95;64
64;64;64;84
111;95;71;56
84;111;64;64
106;62;64;80
109;95;110;111
95;103;111;123
126;127;112;127
127;111;80;112
127;72;84;100
127;107;78;72
96;103;64;80
111;73;76;111
111;111;95;64
96;87;64;96
95;70;64;80
111;68;64;88
100;88;80;95
110;95;66;64
88;111;111;111
111;95;95;64
80;108;119;95
64;88;111;95
64;64;88;111
95;103;105;80
80;100;111;87
64;102;111;78
72;104;111;87
72;119;95;87
64;80;96;84
111;95;64;68
80;111;107;111
111;111;111;127
114;100;84;88
111;111;68;80
119;95;64;106
119;111;95;68
96;119;111;95
72;126;95;72
112;95;68;80
104;95;64;84
111;64;80;111
70;66;64;80
111;64;72;84
103;95;102;84
88;111;95;64
88;95;68;70
64;72;103;110
111;111;119;111
64;88;102;111
111;127;76;80
127;70;72;76
98;95;64;72
102;69;72;94
111;111;104;96
96;111;111;111
95;119;110;106
100;122;126;127
127;95;80;100
127;95;87;80
100;111;72;98
123;79;64;88
119;95;91;79
64;80;92;111
111;95;64;80
111;111;111;87
64;72;96;111
95;64;100;111
111;95;70;64
80;111;79;64
96;68;64;64
80;79;48;80
95;95;79;56
56;68;80;95
95;95;66;64
88;79;48;64
100;79;48;68
103;79;52;84
111;70;64;72
108;79;64;52
72;79;52;64
94;87;48;72
95;79;79;58
64;72;103;95
56;52;48;64
94;87;67;48
84;63;64;95
95;75;48;64
80;95;79;63
48;72;102;95
48;76;103;95
48;76;107;111
52;84;95;62
64;76;80;103
111;95;64;64
106;54;72;107
95;111;111;95
87;64;64;80
88;103;56;80
104;95;87;68
64;64;72;84
109;95;95;95
95;95;78;64
84;100;92;72
68;111;71;64
92;79;56;64
88;79;48;72
95;48;68;84
94;95;78;48
68;88;95;95
75;95;111;79
70;64;84;108
95;111;100;72
72;100;107;106
108;111;77;72
92;111;111;76
80;111;68;64
104;95;78;64
72;111;87;64
96;111;79;64
104;91;64;80
100;111;111;111
111;127;111;111
95;76;72;96
127;87;64;88
111;79;64;84
111;95;64;80
96;111;87;64
108;75;64;84
111;95;79;64
96;104;110;111
111;95;78;72
110;111;95;72
88;125;95;64
96;79;64;84
111;95;95;111
95;95;111;95
68;96;123;111
76;68;72;88
111;79;64;80
111;111;95;95
95;64;80;111
119;111;68;80
96;90;98;111
87;72;64;90
92;88;111;111
79;66;64;64
80;110;95;64
80;79;80;111
71;64;76;111
95;95;87;64
64;84;107;103
111;95;64;84
111;111;111;118
108;127;72;88
119;111;66;84
119;103;70;72
119;95;64;84
98;111;72;68
98;102;111;111
119;119;68;84
123;118;116;123
127;103;76;78
76;68;80;88
92;111;87;64
72;100;88;80
72;80;95;95
102;102;111;95
78;75;64;98
111;111;111;70
80;119;66;64
84;102;111;95
64;96;111;111
91;72;102;111
103;111;127;103
72;100;119;84
72;127;87;72
96;110;127;68
84;111;68;84
111;110;100;111
119;127;95;68
104;119;119;123
122;127;111;103
82;84;122;111
78;72;84;104
111;88;72;84
102;95;68;92
111;95;64;76
111;95;64;84
111;111;111;111
119;95;68;96
123;111;111;79
72;110;119;103
72;88;106;108
108;95;84;116
119;127;122;127
127;127;127;127
127;127;127;118
104;134;95;76
106;108;111;118
124;119;111;95
72;96;125;127
90;80;100;111
68;84;111;119
95;119;119;127
72;108;127;127
127;95;80;88
96;127;111;74
88;127;64;88
111;110;106;102
104;123;119;79
72;116;119;111
72;80;96;111
106;96;88;111
119;106;84;80
88;111;87;64
96;95;95;71
72;111;111;68
64;111;111;111
95;64;96;119
85;85;111;111
111;96;88;88
108;111;64;88
108;92;80;90
111;95;87;87
95;72;64;80
111;111;111;79
80;111;95;64
72;90;103;111
68;68;88;92
92;111;95;79
64;72;111;95
78;86;111;117
108;92;84;72
64;88;103;107
104;90;72;72
106;95;64;64
80;101;92;92
92;111;111;111
111;119;127;119
72;96;127;95
72;80;119;119
127;127;127;127
107;111;109;90
88;127;80;96
122;111;72;106
127;103;76;72
96;108;127;91
72;118;107;72
88;104;119;111
95;95;86;80
123;104;88;88
96;106;119;111
84;64;80;88
110;119;111;64
80;111;95;64
96;95;64;72
80;111;95;64
64;111;68;64
80;90;80;84
100;111;68;64
94;106;110;110
111;95;76;64
98;111;104;102
111;117;116;111
96;118;103;68
88;111;64;92
108;119;103;95
95;119;126;127
127;89;80;96
127;127;127;127
127;132;116;116
127;95;72;80
96;108;123;95
72;119;123;127
127;91;72;84
100;127;111;95
80;108;108;119
114;127;127;103
90;76;80;88
96;127;91;72
100;95;64;96
119;79;64;72
104;67;64;84
111;95;64;72
106;111;111;111
111;116;96;96
100;111;119;79
72;127;111;95
76;72;88;111
111;111;119;123
118;80;68;80
100;111;70;72
106;111;64;80
111;111;107;77
72;118;110;96
88;119;111;95
95;72;72;88
111;111;119;114
108;96;106;118
119;116;127;95
80;88;88;84
96;96;94;88
96;111;111;111
119;119;126;122
127;127;127;127
107;80;88;120
127;127;87;88
127;127;127;127
80;104;127;111
80;127;87;96
127;82;80;104
111;78;80;106
123;119;127;127
127;112;88;80
80;80;96;88
88;111;111;111
64;72;88;111
79;64;72;108
70;72;107;111
107;111;119;100
84;80;88;98
98;92;111;111
111;64;80;111
68;76;96;111
95;64;64;80
111;111;111;119
119;78;72;88
119;119;104;104
118;108;100;88
84;102;100;96
96;109;106;106
100;111;119;111
91;83;64;84
119;111;111;86
72;96;111;86
76;127;95;64
96;104;108;102
110;96;72;64
84;90;103;111
95;111;102;98
106;102;88;92
119;75;64;88
106;103;74;72
108;111;103;95
68;64;80;92
98;111;111;111
87;68;76;88
111;95;64;76
110;64;64;88
111;95;69;68
102;111;95;111
110;88;72;88
96;103;79;64
84;111;95;76
64;72;111;111
111;111;118;118
119;127;111;90
72;127;78;80
104;98;84;100
119;95;111;119
108;88;80;88
119;64;72;111
111;111;111;87
88;127;119;103
111;72;96;123
95;72;80;96
111;71;64;88
111;111;111;79
64;84;111;95
68;84;111;64
96;102;98;94
111;64;100;111
111;111;93;64
96;118;68;80
88;84;88;107
95;79;64;68
72;72;84;76
64;72;95;95
95;95;95;111
111;111;87;68
80;119;111;68
64;72;80;100
111;79;66;64
80;102;111;79
64;88;110;100
108;92;88;108
111;98;96;107
106;100;96;100
111;95;64;72
100;111;91;72
64;111;79;64
72;111;64;64
92;79;62;52
80;100;95;103
98;96;108;107
111;111;111;127
93;96;127;127
127;127;127;127
127;127;84;88
116;127;126;122
127;111;88;76
100;127;127;95
80;110;119;87
80;127;95;72
88;111;119;123
111;107;111;111
95;80;100;119
119;104;88;88
118;119;118;106
100;96;104;98
116;111;95;78
72;127;111;95
68;96;111;87
64;100;111;78
64;68;84;98
100;96;98;88
80;92;100;94
111;111;111;111
108;96;92;119
79;72;119;70
88;111;95;70
72;96;94;100
102;111;95;64
80;108;95;68
64;88;111;111
95;72;74;64
88;111;111;91
72;118;95;64
80;108;111;64
80;119;79;64
98;111;70;64
100;111;108;92
110;111;95;74
64;100;111;87
64;88;111;111
95;84;111;64
80;88;96;102
111;64;72;80
96;111;111;87
64;84;110;111
64;80;111;111
111;111;78;72
108;123;95;68
96;119;119;127
111;76;84;124
111;86;72;96
126;126;127;119
94;96;127;95
76;88;84;88
96;84;80;88
84;95;111;111
95;72;102;111
95;64;84;111
111;111;111;127
111;87;68;84
110;111;111;74
64;84;92;98
106;111;111;95
64;88;111;111
111;111;125;119
127;127;124;127
127;127;111;103
84;96;110;118
127;91;80;96
96;84;88;111
111;95;64;84
96;110;103;64
84;102;110;111
111;119;119;127
111;72;96;106
122;127;116;96
96;126;127;124
96;72;72;68
96;100;84;84
84;72;72;88
95;84;72;84
95;92;84;68
76;80;95;95
79;64;84;102
103;88;72;64
76;92;103;109
111;111;111;111
68;80;96;96
119;111;84;88
88;84;92;105
111;111;119;119
119;127;127;95
72;104;127;68
104;104;110;119
127;127;123;114
104;96;116;123
127;127;103;95
76;88;104;104
118;119;78;80
127;79;84;111
119;95;68;80
90;111;111;103
95;68;84;119
95;72;64;92
111;64;72;80
98;111;111;111
70;80;100;119
111;119;127;123
104;104;116;108
108;88;90;111
108;96;108;119
64;96;111;111
85;70;64;80
80;94;98;92
111;111;102;90
111;111;87;68
84;100;111;111
116;111;119;111
68;104;119;119
111;79;72;88
123;119;111;76
80;118;111;72
96;114;127;111
95;95;72;80
127;111;82;72
96;111;108;96
119;111;127;125
127;103;80;72
96;108;123;95
72;88;104;108
104;88;111;111
119;119;111;83
88;118;103;64
118;127;95;72
80;100;96;111
108;119;119;95
72;88;104;119
111;87;72;108
119;118;110;111
116;127;127;103
80;116;111;76
96;127;95;72
88;108;108;88
88;108;111;95
86;76;98;111
111;74;76;88
96;111;111;111
72;64;72;92
103;111;111;95
64;80;119;111
79;64;100;119
111;70;64;72
110;111;119;119
95;86;72;119
111;72;72;88
104;98;96;111
111;64;111;95
79;72;88;98
111;68;76;111
111;95;95;64
84;100;110;111
111;95;64;88
119;75;64;76
119;87;72;64
76;88;111;69
64;100;109;95
64;80;98;111
111;87;79;64
88;88;96;88
96;111;95;74
64;108;111;111
111;95;68;80
80;84;102;111
111;64;80;98
111;64;72;88
110;111;111;111
119;111;76;72
96;100;111;111
74;84;119;111
95;64;80;98
111;119;111;111
68;80;92;106
111;72;110;111
64;96;111;64
96;106;119;119
95;80;123;74
80;108;119;102
76;88;102;111
95;72;88;96
104;111;111;108
106;111;111;123
126;127;111;95
76;100;114;108
104;102;111;127
111;72;88;96
96;98;104;111
74;96;111;87
72;64;84;111
111;64;98;111
111;111;103;87
72;96;111;68
72;88;106;111
87;64;72;80
92;111;103;80
72;80;94;107
111;95;111;111
103;80;127;66
88;111;79;64
88;96;100;98
88;72;72;88
88;64;64;84
95;44;76;95
79;64;76;82
72;64;68;94
87;48;64;95
103;95;71;52
84;80;72;84
94;95;52;64
95;95;103;106
111;104;88;84
111;75;72;96
111;64;80;111
70;80;111;87
64;64;88;92
111;79;79;64
76;111;79;64
64;84;103;71
64;88;95;71
66;68;84;103
107;111;87;64
84;84;92;111
71;64;84;111
79;72;92;102
111;64;64;80
103;103;111;95
68;64;88;111
95;64;92;95
52;84;111;109
94;80;68;72
88;95;52;72
100;111;87;66
64;76;80;80
103;75;52;64
86;95;71;48
82;95;87;58
64;94;110;95
95;72;110;111
79;64;92;111
95;72;102;95
64;72;84;111
100;72;64;72
86;87;48;88
87;72;100;103
95;56;76;92
100;92;64;52
48;52;64;78
95;52;95;79
48;64;95;63
52;64;92;95
79;54;48;84
95;48;80;92
95;95;70;52
84;94;80;88
103;87;54;64
90;90;88;95
88;80;88;103
95;95;64;64
103;79;52;72
106;95;78;64
64;64;76;95
103;95;87;95
95;64;88;111
79;80;111;79
64;96;95;64
84;100;95;64
84;111;110;104
119;72;108;95
64;80;111;111
64;84;111;64
80;92;111;87
64;84;111;111
111;111;74;72
104;111;76;64
111;111;95;119
111;72;88;108
98;96;111;119
95;80;119;91
74;72;88;96
111;95;75;64
80;111;109;111
119;111;119;119
127;116;100;122
95;104;111;72
124;111;79;80
108;96;84;84
80;103;111;95
64;80;110;87
64;80;111;111
95;80;110;103
64;88;104;111
111;111;110;106
100;108;108;106
102;98;104;108
100;102;119;111
74;96;95;64
92;111;79;64
88;111;100;84
88;106;111;64
84;111;56;76
107;79;56;64
84;94;100;106
111;91;70;64
96;102;96;102
111;73;64;80
111;64;90;111
64;80;94;111
106;111;95;87
87;64;84;102
95;80;111;95
64;88;111;111
119;111;111;111
95;78;72;96
123;76;64;80
88;111;111;111
79;80;117;111
95;68;88;111
111;72;92;92
111;78;64;102
103;64;100;111
111;64;84;111
87;72;92;103
111;87;64;84
111;70;64;68
80;103;111;64
76;80;88;103
95;56;72;98
111;71;64;72
90;95;87;60
64;64;68;80
95;95;79;60
64;72;88;95
111;52;72;107
95;64;92;95
64;64;84;102
95;64;92;95
87;64;94;92
88;76;64;64
80;79;48;48
68;78;76;95
79;68;95;63
64;68;72;68
64;48;40;48
76;79;79;36
76;95;63;44
68;72;84;95
95;59;48;64
95;48;52;86
95;40;64;95
44;64;88;95
95;63;64;95
95;76;56;71
95;50;64;103
95;64;92;111
79;87;64;64
80;80;84;82
80;76;72;76
95;44;64;68
95;44;48;64
82;95;55;44
48;68;95;63
64;64;86;95
52;48;64;80
94;87;62;48
72;78;82;80
84;86;88;95
107;111;79;56
80;80;76;84
111;63;64;109
56;68;102;111
95;56;72;100
98;80;72;72
68;95;95;95
107;107;108;100
98;110;111;119
119;79;64;80
92;102;111;95
64;68;80;84
106;95;79;64
80;88;80;76
92;87;58;52
64;68;90;95
79;52;80;103
95;64;102;111
95;64;96;111
64;64;76;94
111;64;64;84
88;102;108;110
111;111;111;95
95;64;96;119
111;68;80;98
111;93;64;104
87;72;102;111
111;64;84;111
79;64;72;102
102;103;87;64
80;88;92;107
100;84;68;76
92;95;79;60
72;92;102;111
111;87;91;64
80;72;84;109
111;64;64;76
90;103;111;95
64;64;80;94
111;64;96;111
111;98;76;76
98;111;79;64
80;111;95;95
70;64;92;95
64;72;80;94
100;111;70;64
111;68;64;84
111;64;84;95
111;56;72;92
94;79;64;88
111;75;56;64
88;63;64;88
103;63;64;90
95;64;100;95
95;71;64;72
111;52;72;92
111;56;64;80
111;48;64;72
107;62;68;103
95;64;76;84
88;95;67;52
48;48;64;78
95;44;64;78
95;64;103;54
64;80;95;95
79;48;64;76
95;95;95;111
95;72;111;95
64;64;92;95
79;64;84;103
111;60;68;92
92;88;80;88
111;58;64;72
111;64;111;64
72;84;111;95
95;64;96;111
111;79;64;84
111;64;76;111
111;76;64;80
111;56;68;84
106;95;66;64
80;103;111;95
79;95;111;119
111;68;100;110
127;95;103;79
80;88;96;104
96;111;111;119
111;84;106;100
108;79;64;84
111;64;64;76
103;71;64;84
103;67;64;80
111;63;64;95
95;92;80;64
84;59;64;76
95;48;94;87
79;69;64;80
103;52;76;88
76;64;64;86
95;64;92;79
48;64;95;79
52;64;92;95
95;48;84;95
48;64;68;76
95;79;63;48
80;95;63;48
68;72;90;95
95;95;95;94
82;84;111;74
64;64;68;95
71;52;72;103
78;64;94;107
103;79;64;72
100;66;64;84
111;95;71;64
80;95;52;72
88;111;71;52
88;52;72;90
94;95;78;52
64;52;64;95
