## File generated by myo_cap software 
## Available from github.com/ddantas/myo_cap 
## Timestamp: 2020-05-01_00-49-45 
##  
## EMG capture settings 
##  
# sampleRate: 2000 
# channelsPerBoard: 4 
# nBoards: 1 
# bitsPerSample: 12 
# ch0;ch1;ch2;ch3
332;303;271;247
231;218;207;148
144;140;148;132
110;118;118;116
126;126;124;116
127;127;111;88
88;92;78;80
108;124;126;112
96;96;108;116
127;103;87;76
96;119;110;96
76;80;84;111
111;111;96;72
68;72;92;92
80;84;88;76
64;76;94;95
94;108;103;103
102;111;111;87
68;100;111;111
116;111;108;108
116;118;119;116
124;118;104;100
88;96;108;102
88;100;119;110
100;119;111;100
84;80;76;84
106;111;111;111
119;119;127;127
127;111;92;80
80;104;126;119
112;124;126;116
108;100;96;96
84;96;102;108
111;96;92;111
103;110;111;118
100;84;76;72
84;92;84;84
80;92;95;56
64;94;92;76
64;68;88;95
87;52;64;64
88;95;71;56
64;76;92;95
95;87;70;64
88;88;88;86
92;95;95;79
79;79;64;76
92;111;77;76
68;64;68;80
102;95;95;95
111;95;95;87
76;72;84;100
102;108;111;111
111;111;111;103
76;104;125;119
95;86;84;72
88;127;79;72
72;84;96;100
111;111;108;102
92;72;68;64
76;102;103;103
109;111;108;100
92;111;110;108
104;104;104;116
119;111;111;126
122;96;84;93
72;80;104;95
76;68;92;108
108;108;111;108
92;84;96;92
76;84;80;76
92;95;95;95
95;70;64;72
100;95;95;103
111;108;104;108
110;111;102;96
96;111;111;111
111;111;111;127
116;96;80;109
111;111;119;127
127;92;84;96
100;110;124;118
100;100;92;96
119;95;87;68
72;84;88;88
88;102;95;64
64;68;76;103
100;94;111;111
111;111;100;88
124;72;72;96
111;108;96;92
100;111;111;111
111;111;119;104
84;92;119;116
100;100;125;119
111;76;96;116
119;103;111;124
124;112;108;100
116;127;111;127
127;127;127;127
143;127;127;120
108;104;96;96
116;116;111;108
118;116;116;127
111;90;80;76
76;80;88;92
92;88;84;92
92;110;95;76
64;80;110;111
95;68;64;72
80;106;100;94
84;76;72;76
95;95;103;103
95;64;76;92
111;95;95;95
92;68;72;72
88;88;88;76
80;94;95;52
76;102;103;100
100;95;79;71
64;72;96;95
70;64;72;84
68;64;52;48
64;80;95;95
95;103;88;64
64;88;87;56
64;80;95;95
95;95;100;100
88;100;103;79
64;64;84;108
95;72;79;64
76;84;100;102
94;111;95;76
64;92;111;111
102;80;80;92
100;110;111;111
119;119;119;127
127;127;127;127
127;124;108;96
88;100;104;108
96;92;84;72
84;111;95;111
111;111;124;118
104;122;127;127
111;119;127;112
104;118;127;127
127;124;92;116
100;104;108;102
100;100;100;96
100;100;100;94
92;100;92;86
100;92;92;88
92;84;104;76
80;100;111;79
64;80;96;92
84;102;111;111
111;111;111;109
111;111;111;76
92;96;88;100
119;72;68;64
84;102;111;111
111;119;125;92
76;100;125;111
78;96;111;84
80;104;110;102
119;95;76;80
100;110;111;95
76;68;84;111
95;64;64;72
64;64;72;80
95;95;92;68
64;79;95;84
68;68;64;80
92;95;95;95
79;64;64;52
64;72;92;95
103;95;103;111
95;94;111;108
102;96;96;110
111;96;92;104
102;104;100;100
102;100;96;80
80;92;84;76
92;111;79;79
71;64;64;80
86;102;95;95
111;111;108;100
102;111;119;111
126;119;125;124
96;96;104;108
116;127;111;109
95;76;96;100
126;119;126;127
111;103;95;76
96;127;92;76
96;108;110;119
119;124;110;96
92;118;119;103
95;86;80;88
100;119;111;111
119;119;112;116
108;108;122;119
116;108;96;88
88;88;100;111
111;102;76;68
64;110;95;64
80;92;104;109
111;109;111;96
72;68;72;80
108;93;64;64
80;68;68;72
84;88;68;64
68;76;95;95
79;52;64;64
80;94;95;92
80;94;87;56
68;80;76;68
76;95;79;79
60;52;64;84
84;78;84;95
95;102;110;111
108;88;68;64
64;68;86;102
94;92;94;102
92;76;68;68
72;94;95;95
103;111;111;87
70;72;110;111
111;108;84;80
102;95;64;76
92;94;102;94
88;110;111;87
79;68;64;64
72;94;103;111
111;111;111;116
119;111;111;111
127;108;88;80
68;100;119;111
76;84;100;116
110;119;111;76
84;96;108;96
96;111;111;111
111;87;68;80
100;111;111;111
108;116;125;111
95;72;80;88
88;88;80;68
76;80;92;92
92;84;84;84
68;76;76;68
88;95;95;56
68;84;95;103
103;103;108;100
100;111;111;111
95;72;76;92
110;111;111;119
124;125;104;88
88;111;119;111
100;108;119;111
111;96;80;95
95;76;80;118
92;84;100;80
72;84;111;93
64;88;111;79
64;88;100;111
95;64;68;68
76;76;84;94
103;109;95;111
111;111;68;80
88;111;111;111
125;76;76;92
110;111;111;111
119;103;95;76
88;100;126;124
127;76;76;80
92;102;111;111
111;111;96;76
64;88;111;111
111;96;80;88
102;111;111;79
68;72;92;108
108;103;95;111
111;84;76;80
88;88;96;102
96;111;111;108
88;84;92;100
96;80;64;68
84;103;108;109
111;79;64;64
80;76;94;103
102;108;92;80
80;109;108;100
76;64;64;84
92;103;106;102
104;104;84;84
92;94;64;64
92;111;95;64
64;80;111;111
111;108;92;80
80;96;95;64
72;84;111;95
87;95;111;102
84;84;84;84
84;80;98;88
84;68;64;64
84;79;52;48
76;78;68;76
86;88;80;64
76;95;84;76
78;95;95;79
77;64;64;71
52;76;95;94
80;76;88;88
86;80;84;103
79;64;60;52
64;52;48;48
68;95;79;48
68;72;95;95
95;94;95;88
72;68;68;72
68;52;64;64
68;95;79;68
52;48;48;52
72;59;64;76
80;95;95;87
79;56;64;72
88;92;84;76
72;84;80;76
64;64;64;76
72;95;79;79
87;64;64;87
103;100;108;108
111;92;72;64
72;80;86;94
109;95;68;64
100;111;108;111
111;76;72;92
108;95;64;80
80;80;72;64
72;80;84;64
48;44;48;44
76;94;94;79
70;64;64;76
84;80;84;72
78;72;72;64
64;86;95;95
95;84;64;60
94;102;108;111
111;96;76;68
80;111;108;108
100;96;100;110
111;111;111;119
119;119;112;116
104;88;88;92
80;80;72;76
92;95;87;79
87;64;84;103
102;106;92;76
64;64;80;108
95;103;111;111
110;100;104;100
88;119;103;95
95;79;68;76
96;103;95;111
111;111;119;110
104;116;110;104
96;84;72;68
102;95;68;64
64;68;64;68
84;95;95;92
80;84;94;86
92;95;103;92
68;64;64;64
72;95;95;95
95;64;68;80
103;95;56;64
80;110;110;108
94;80;84;100
102;108;110;100
92;111;111;104
100;102;100;108
96;96;92;92
88;96;100;108
108;111;119;95
68;68;68;76
84;102;111;95
95;76;64;72
94;108;106;111
111;96;80;68
64;88;111;109
108;110;100;92
92;110;104;84
68;68;72;84
95;95;108;96
76;64;56;64
94;95;79;52
72;103;95;95
95;64;64;68
108;79;64;64
76;111;95;111
111;64;84;104
111;111;119;111
76;76;88;84
84;110;111;103
95;111;119;108
96;124;125;126
124;127;111;111
127;104;100;104
119;127;127;95
80;110;127;87
80;88;72;68
72;100;111;111
102;84;68;68
80;111;111;111
111;95;68;76
96;111;95;64
84;111;111;72
64;84;110;111
111;119;111;102
92;96;119;95
64;72;80;80
84;80;84;92
111;68;64;64
76;103;100;104
110;111;95;68
96;111;111;111
110;102;80;80
92;103;111;111
111;95;79;64
84;104;111;110
111;95;79;68
76;102;111;111
111;79;80;100
108;108;110;102
80;80;88;92
100;108;111;111
111;95;68;76
96;95;68;68
84;108;103;68
76;102;111;111
100;96;96;108
100;111;100;100
88;88;84;76
92;111;95;111
111;119;111;86
80;118;118;116
110;100;76;68
68;72;92;111
95;76;86;64
68;100;102;92
80;84;94;111
95;111;111;87
72;92;111;111
118;110;104;125
127;95;76;88
116;111;103;72
92;96;84;80
88;111;111;111
119;78;68;76
104;111;96;76
88;96;111;95
93;64;88;111
111;111;88;76
72;100;111;79
68;68;108;111
102;108;92;88
84;84;80;76
84;111;95;95
95;111;111;79
72;92;118;95
68;84;108;111
103;111;118;110
118;127;111;95
102;111;118;88
119;96;103;96
94;108;80;110
92;76;111;88
103;88;76;76
92;92;100;108
103;111;111;76
80;100;110;119
111;95;87;84
72;72;88;104
119;79;76;72
100;111;95;111
104;88;96;100
118;111;95;76
84;96;119;111
119;104;88;96
111;100;108;96
108;119;111;119
118;118;110;96
96;111;110;119
125;126;127;127
127;127;118;96
88;84;76;96
119;111;79;80
104;111;111;125
119;116;124;126
127;111;111;111
127;127;127;127
120;116;124;112
92;80;92;119
119;111;109;111
111;84;80;76
76;72;84;116
95;76;64;80
88;96;108;111
95;86;68;76
80;84;84;76
72;92;103;95
76;64;84;94
95;94;80;64
64;102;95;95
79;64;72;84
106;109;102;88
100;111;111;119
100;72;64;80
92;100;88;88
80;92;102;103
111;78;64;80
80;98;92;80
64;64;56;48
64;76;95;95
95;71;52;52
76;95;79;54
64;80;84;78
72;76;95;71
52;94;87;68
64;72;84;103
79;64;64;80
84;95;95;79
71;95;72;64
64;76;92;103
108;111;110;100
118;95;78;64
76;80;84;103
109;96;88;100
111;111;111;110
104;108;88;104
100;88;68;68
68;84;102;87
95;108;88;68
64;80;103;95
95;64;64;84
84;80;64;68
94;95;95;103
84;88;92;94
92;84;84;84
95;94;72;64
68;84;88;94
103;103;84;64
95;95;95;79
64;72;110;111
111;93;68;68
80;88;111;111
111;92;72;68
88;79;64;84
94;80;68;72
80;84;88;95
95;86;92;92
100;110;102;88
84;92;100;86
84;108;106;111
111;111;95;68
84;111;111;68
72;80;92;103
100;84;80;92
103;111;71;64
92;110;110;111
111;111;119;119
124;116;100;96
96;108;100;108
119;111;95;86
72;108;119;95
76;76;118;95
68;68;68;72
88;94;102;104
111;70;68;84
76;72;84;100
95;95;111;111
111;100;92;84
92;84;76;68
64;52;52;68
84;95;79;68
64;84;92;68
56;52;52;68
95;44;72;95
79;95;95;80
68;68;92;95
95;64;100;103
102;92;84;76
80;84;68;68
72;92;86;94
102;79;60;64
94;95;79;93
95;68;72;103
111;111;111;96
72;64;72;92
102;100;84;76
76;84;84;95
95;64;52;68
72;84;95;95
95;103;110;111
108;88;92;100
111;64;80;96
111;95;95;68
84;100;76;68
95;111;88;68
72;68;68;64
80;95;60;64
76;95;78;52
64;86;95;86
92;84;78;84
102;95;79;56
68;80;94;86
84;94;103;108
108;96;84;92
84;108;110;92
92;76;80;95
100;92;96;100
88;80;64;64
72;103;78;76
52;76;103;95
56;76;95;92
108;102;88;84
96;84;80;80
72;72;92;84
88;92;95;95
95;100;84;100
102;110;111;111
95;72;96;111
111;95;103;76
84;102;111;119
119;92;80;118
125;119;111;95
80;96;108;102
88;96;102;111
111;92;78;76
92;108;108;92
72;68;64;64
96;102;100;109
111;111;111;110
111;111;94;72
84;102;108;119
87;68;84;92
92;111;111;111
111;119;122;118
108;88;80;80
88;100;111;111
111;95;72;84
110;111;86;68
80;100;111;111
110;96;100;96
92;96;96;108
108;92;88;100
111;108;100;88
88;100;102;102
96;96;100;96
80;80;72;80
88;84;68;64
64;88;95;95
95;95;68;64
68;80;80;95
92;64;79;76
64;60;54;56
52;52;48;64
64;76;84;76
68;68;64;64
64;64;64;68
86;87;95;94
80;68;64;64
68;68;76;95
79;95;103;88
76;72;76;92
103;95;76;64
72;95;95;95
95;64;72;84
111;52;84;111
95;95;95;111
110;111;92;76
76;92;108;102
100;92;76;64
64;64;94;95
95;95;95;76
68;108;111;111
119;125;111;111
127;119;84;80
108;127;103;95
103;95;86;76
96;108;116;119
94;76;80;80
84;96;111;108
88;80;92;111
95;68;64;80
96;111;111;76
64;80;96;110
106;108;111;111
100;92;84;76
84;92;72;68
84;87;56;64
86;95;88;94
94;103;104;111
76;76;96;111
102;88;76;84
111;64;80;86
92;111;95;79
64;80;111;111
111;111;111;119
127;76;110;127
127;119;127;127
127;127;127;124
100;118;127;127
127;100;88;108
127;119;95;80
100;116;122;108
96;96;96;100
104;100;102;96
88;92;80;76
76;72;68;76
84;95;95;80
72;84;103;103
71;64;76;108
108;111;100;92
92;88;104;108
92;72;76;95
84;70;95;108
92;100;92;92
111;68;64;80
94;95;68;72
94;111;95;79
87;68;96;100
104;111;95;87
70;64;72;84
92;103;92;80
76;111;103;103
96;92;80;68
68;80;88;94
109;76;64;64
64;64;68;72
84;95;95;87
68;68;102;111
52;76;102;95
78;64;72;76
76;84;72;76
72;80;95;95
86;84;68;64
52;76;88;95
95;95;84;64
64;64;76;92
80;64;52;64
76;95;88;84
76;76;84;95
95;95;95;79
64;64;76;94
110;93;87;68
68;80;80;92
94;84;68;64
76;80;84;84
95;79;60;64
95;79;52;68
92;95;95;95
78;79;87;87
70;64;72;110
111;87;68;64
76;84;80;68
72;95;95;92
76;68;68;80
76;95;95;95
95;94;64;76
96;92;88;84
100;103;103;80
68;80;95;79
76;64;80;102
111;79;64;104
95;87;64;76
100;111;95;93
79;68;64;72
92;79;64;52
72;92;95;103
108;95;74;64
72;102;110;110
100;84;64;64
96;103;88;68
64;84;84;86
92;95;87;52
64;108;68;56
64;80;106;79
64;64;95;95
70;64;94;95
92;94;84;98
111;106;76;64
64;71;95;95
100;72;64;64
72;95;52;64
84;95;103;94
80;68;76;92
88;88;72;64
80;79;48;64
72;94;92;72
64;48;48;40
64;95;52;40
68;95;87;95
95;79;71;68
64;64;64;68
76;88;84;68
64;72;78;86
84;72;72;68
68;64;64;68
92;95;95;95
95;95;84;72
80;84;68;64
68;68;76;88
92;95;95;103
108;111;110;96
88;80;64;94
100;76;80;80
76;72;72;76
95;95;95;79
52;64;86;108
95;64;88;84
76;92;95;94
100;92;92;68
64;64;84;95
95;94;84;68
64;64;72;88
95;76;72;76
95;71;52;48
64;68;76;76
92;95;95;95
95;87;64;64
80;109;111;95
68;64;64;64
64;64;68;68
88;84;84;94
95;103;103;100
84;68;64;64
80;103;63;52
64;48;52;52
52;48;48;64
92;87;87;95
79;70;78;95
111;100;80;76
84;84;72;76
76;84;92;95
95;103;108;92
84;88;84;102
109;111;111;118
126;119;96;80
80;78;68;80
96;92;88;88
88;88;84;100
111;87;64;72
72;100;106;111
111;111;102;92
88;96;102;108
96;88;80;80
80;96;110;111
111;102;84;72
68;76;80;94
111;70;64;72
84;76;64;64
76;88;84;76
72;64;64;64
92;94;92;78
64;48;52;64
64;64;68;84
84;72;64;76
95;87;60;48
64;72;68;68
95;44;64;68
92;79;40;64
76;95;95;92
64;52;48;52
86;95;95;95
103;102;100;100
92;92;100;92
88;94;106;111
111;87;64;76
94;111;111;102
76;70;79;70
64;64;80;102
95;64;64;64
64;72;92;95
103;95;72;64
64;76;92;88
88;84;88;80
95;95;95;95
110;111;95;70
72;96;100;84
72;80;84;80
72;76;64;64
95;71;87;88
64;56;64;78
80;95;95;79
52;64;68;76
76;68;52;64
70;76;64;76
94;79;48;48
76;95;92;92
94;102;103;102
96;92;92;100
111;108;102;88
88;108;108;84
80;76;84;84
84;95;79;79
95;95;79;64
64;92;84;76
80;80;68;72
88;86;86;95
103;95;76;52
64;88;95;95
95;52;72;94
94;108;108;106
102;100;110;111
119;111;103;111
94;78;72;96
108;111;68;88
119;76;64;80
88;88;76;76
103;103;111;111
119;87;72;96
100;96;92;110
110;111;104;88
96;94;88;84
92;111;71;64
102;95;95;76
76;96;100;111
111;111;111;117
100;100;80;76
88;110;111;111
119;103;72;84
96;88;88;84
80;76;64;60
52;48;64;68
86;95;79;60
64;68;86;92
88;95;95;95
74;64;76;100
110;87;64;64
80;88;111;103
95;95;95;111
119;119;127;124
112;104;88;96
100;92;72;103
84;72;100;68
76;95;111;111
111;111;111;95
76;76;84;96
111;111;119;111
103;76;84;104
125;103;76;76
100;119;111;111
111;122;100;84
87;68;68;72
88;111;79;68
84;92;84;72
76;95;86;76
68;64;48;48
64;72;86;80
92;78;72;76
80;95;79;52
52;76;95;95
95;79;56;64
72;100;95;87
64;64;84;111
103;111;111;119
119;119;95;72
96;127;110;111
95;84;76;72
80;92;100;108
119;68;76;84
84;76;72;80
86;68;64;64
76;95;95;79
64;52;64;84
103;70;64;68
76;92;92;95
95;52;64;92
103;79;64;72
108;64;72;106
111;95;95;79
68;72;80;102
111;95;87;68
72;76;84;100
111;64;64;84
111;95;87;87
78;64;84;104
111;79;72;64
68;92;110;111
79;79;79;68
80;110;95;95
86;64;80;100
111;64;88;92
68;64;52;64
102;68;68;86
95;95;52;64
95;95;92;80
100;48;80;92
111;62;64;84
80;100;100;84
76;111;79;64
64;64;80;84
76;80;84;92
84;94;95;94
100;103;100;88
80;64;64;80
92;95;103;109
92;76;64;95
103;88;64;64
64;72;88;84
95;86;64;64
48;52;64;72
72;84;84;84
84;84;86;92
92;95;102;84
64;56;52;64
84;60;68;95
95;71;52;76
95;79;62;64
80;72;68;72
76;95;95;95
103;100;76;64
64;84;92;84
84;84;88;95
94;94;102;102
111;111;111;111
119;111;88;80
80;92;104;95
68;84;110;111
86;79;76;70
64;92;103;111
94;64;84;111
111;64;88;100
111;108;84;80
80;92;94;84
72;64;64;64
92;95;95;109
111;111;108;108
110;109;72;68
80;72;68;72
92;100;92;92
94;102;92;80
84;109;95;95
87;64;80;88
76;72;80;88
88;92;72;64
64;95;95;94
80;76;94;95
94;80;72;80
94;108;103;103
96;110;104;100
88;88;92;84
80;92;111;95
108;96;92;80
72;84;102;111
95;87;64;64
76;102;111;110
84;84;94;78
100;76;72;84
88;80;102;95
95;95;70;64
102;77;64;64
100;79;64;88
111;64;88;102
92;100;111;100
72;64;68;56
72;76;94;102
111;95;95;68
64;92;103;111
95;70;64;64
76;102;111;103
79;64;64;76
92;111;95;95
111;111;111;96
100;102;110;111
108;119;124;124
110;96;88;84
84;76;80;108
95;64;76;88
111;64;64;64
92;95;71;64
64;52;72;92
95;95;95;95
95;72;64;64
84;103;100;84
68;64;64;64
84;95;48;64
64;92;95;95
95;79;64;68
84;108;95;103
92;96;84;80
100;108;111;111
100;92;80;76
88;80;84;84
72;68;68;72
76;95;95;95
103;108;111;111
103;103;94;68
88;111;119;95
95;72;68;76
104;95;94;68
68;64;64;76
92;108;111;111
76;64;76;84
88;111;79;64
84;92;80;84
100;95;72;64
56;64;72;68
76;84;92;80
64;78;86;95
95;95;52;64
80;95;103;88
68;64;56;70
64;95;92;80
80;94;95;95
79;64;68;96
103;108;92;80
68;64;64;56
64;84;95;103
95;71;64;84
94;95;76;64
64;84;95;95
103;96;88;72
80;103;111;95
95;111;95;86
68;76;76;80
80;72;64;56
68;79;95;103
111;111;110;111
111;119;103;109
76;96;111;93
72;80;84;102
111;68;88;96
80;76;76;88
108;106;109;110
111;111;96;68
64;80;84;94
84;72;76;88
84;84;72;64
68;84;92;95
95;56;52;72
84;95;95;102
94;102;111;87
64;68;68;68
80;76;80;95
79;52;64;64
68;95;95;95
111;103;100;80
80;111;95;68
68;102;111;111
119;119;126;127
127;127;127;127
127;127;135;127
127;127;127;111
95;84;100;124
112;124;127;127
127;127;127;116
108;100;96;100
112;104;104;88
84;84;100;111
95;103;79;64
102;111;87;68
76;96;111;111
116;111;88;80
100;111;70;68
68;72;76;92
103;95;93;79
76;76;79;95
79;68;76;72
80;103;110;111
111;119;110;100
88;72;84;110
111;111;104;108
110;119;111;84
76;104;111;68
108;116;108;96
80;80;72;64
64;68;92;95
92;110;95;64
64;64;68;94
103;95;70;64
76;103;95;95
103;95;68;68
88;108;100;108
108;111;111;111
119;111;125;124
96;96;96;110
126;103;76;72
80;84;80;72
92;111;111;111
111;93;72;72
96;111;103;95
111;119;125;127
127;127;103;84
100;116;127;84
88;104;111;122
116;104;84;80
100;111;111;76
72;92;100;111
119;87;64;76
111;76;64;72
104;68;64;84
103;109;110;108
88;88;84;76
80;103;95;95
87;95;111;103
95;79;80;96
104;111;118;119
126;119;108;108
108;108;108;92
92;119;111;108
96;100;92;100
96;92;92;80
76;76;84;103
111;77;64;64
80;111;95;76
64;72;80;76
64;68;68;78
95;71;48;52
64;76;68;52
52;84;87;95
95;95;79;78
64;64;72;72
72;88;95;95
92;76;92;94
92;92;76;68
68;72;80;92
95;103;95;87
68;64;64;72
80;95;95;87
71;64;68;80
106;95;76;64
64;96;111;111
110;111;111;119
119;119;119;80
96;127;95;76
76;84;88;92
110;103;64;84
88;110;111;108
102;119;119;116
108;108;127;125
116;116;126;127
127;103;94;80
96;127;95;76
100;111;72;84
110;111;111;116
100;100;108;118
111;111;110;118
112;127;127;103
84;96;124;119
110;127;127;124
108;84;80;80
88;104;108;108
104;110;96;76
68;64;64;64
64;76;103;95
92;72;64;76
103;95;87;76
64;72;80;84
92;95;95;79
76;79;66;64
68;92;95;95
108;108;92;76
64;87;100;92
84;108;108;100
92;84;64;68
88;95;68;64
84;103;102;84
76;106;79;64
64;80;103;103
94;92;76;76
94;103;100;92
111;64;64;64
64;72;88;95
79;52;64;64
76;94;76;64
76;95;95;95
79;52;94;108
111;111;111;95
76;64;72;88
111;95;64;68
100;95;87;68
64;68;80;94
103;110;110;111
100;100;108;100
111;102;102;108
119;111;111;103
95;111;119;124
126;127;102;86
80;96;108;110
119;95;76;72
88;119;95;64
76;84;96;92
88;94;84;76
80;94;109;111
111;111;100;84
80;111;87;64
102;111;111;111
100;92;84;88
88;80;68;68
88;95;68;64
76;94;95;94
92;84;68;64
102;60;64;76
103;95;95;93
95;111;100;92
88;84;84;96
92;92;84;88
84;72;64;52
68;88;90;86
84;76;88;95
103;103;95;95
108;96;80;68
64;64;68;100
95;64;64;64
72;68;64;64
64;95;95;95
95;94;88;96
111;95;79;64
76;92;88;84
84;76;76;94
80;64;64;68
68;84;95;94
95;87;70;64
68;103;77;64
72;86;88;94
84;111;87;79
94;111;96;94
104;111;79;84
110;111;108;116
104;76;64;64
64;72;76;84
92;103;79;56
76;100;103;95
87;64;92;111
111;108;80;64
64;64;68;64
92;68;79;68
88;68;78;86
68;79;92;68
64;76;95;95
95;95;110;100
92;84;72;64
68;76;84;92
103;79;95;64
72;102;111;78
64;88;84;76
68;64;84;95
94;92;95;109
103;79;64;68
92;87;64;80
96;103;103;100
111;111;111;108
92;80;84;80
64;64;76;76
84;103;95;79
87;95;79;64
64;84;84;92
80;64;52;64
64;72;84;95
79;56;60;79
95;80;64;52
64;64;72;86
76;64;48;40
52;84;93;79
48;64;88;95
79;87;95;108
111;111;111;111
119;111;84;72
72;84;100;111
111;86;68;64
72;88;100;92
88;111;111;95
111;104;84;76
88;111;111;95
79;68;80;96
111;79;64;64
80;94;100;111
111;64;88;111
111;111;96;84
88;108;111;111
111;111;92;72
72;64;80;88
96;109;111;108
92;111;111;72
72;84;96;92
80;68;72;72
72;76;92;92
92;68;52;71
87;86;64;71
87;56;52;64
80;92;86;84
80;94;95;93
64;64;92;95
103;110;102;96
92;88;96;94
104;111;111;100
80;84;80;88
88;80;88;109
103;100;84;72
68;92;103;103
102;80;76;84
94;103;103;103
96;88;84;92
94;111;111;95
87;68;72;88
111;95;95;111
104;104;108;111
119;125;119;87
72;72;80;92
111;102;111;119
118;119;119;110
110;127;103;95
76;80;84;84
96;110;111;111
119;111;111;126
127;95;80;80
100;110;108;100
108;119;111;100
88;111;111;110
108;108;119;119
93;72;72;68
88;108;111;111
110;104;92;88
100;100;92;80
88;111;111;111
111;95;86;68
76;108;100;96
108;111;95;92
68;96;119;111
111;92;68;80
117;111;96;80
88;88;80;68
68;102;111;103
96;92;88;88
96;108;111;100
84;84;92;108
100;100;92;80
88;96;106;111
100;84;72;76
84;88;80;72
95;103;102;88
68;80;88;84
72;76;88;86
92;95;76;68
80;95;48;64
88;79;78;70
56;52;64;64
94;79;67;52
68;80;72;68
76;64;68;72
84;95;44;64
80;95;79;95
79;87;79;64
72;84;84;64
56;79;95;100
111;95;111;111
111;111;92;80
96;119;87;64
80;111;95;72
64;84;111;64
80;103;103;84
64;70;95;94
84;84;72;76
80;103;79;69
68;74;79;64
64;64;68;84
103;103;111;104
88;68;74;95
102;88;80;94
102;110;111;111
111;95;87;68
68;96;110;92
68;87;93;111
111;116;110;96
88;84;88;92
100;111;102;100
100;111;111;111
108;96;96;92
96;111;79;64
80;92;95;79
64;68;111;64
72;80;95;103
92;64;94;80
64;64;88;95
92;76;64;64
80;95;95;94
84;72;64;64
84;79;71;79
71;79;95;103
111;111;119;111
95;72;104;119
111;111;119;127
124;104;84;80
92;110;126;95
72;76;92;119
111;68;80;104
111;108;84;68
80;111;68;72
100;108;106;96
84;94;111;111
79;95;111;116
122;111;111;111
111;127;126;104
84;80;76;72
76;80;92;88
88;100;102;108
104;92;88;84
92;88;80;92
102;92;106;103
111;95;110;88
80;96;106;110
111;111;111;124
127;95;76;100
110;119;84;78
72;92;96;84
80;111;79;64
100;103;88;84
64;56;64;68
92;72;64;64
76;92;95;95
95;68;64;52
64;76;95;95
86;84;86;84
84;95;56;64
84;79;78;62
64;64;72;95
95;95;74;79
87;76;68;64
76;111;93;95
111;108;96;92
100;110;111;119
111;116;127;109
76;80;88;119
111;79;84;108
108;108;100;88
88;102;95;79
68;80;108;111
108;100;108;110
80;68;64;64
76;106;111;111
111;64;80;111
111;64;84;84
100;111;100;80
76;64;72;84
88;92;110;87
64;80;110;111
95;68;68;80
92;92;94;111
103;87;72;68
100;95;87;95
76;64;100;111
76;80;108;108
110;102;84;76
108;95;87;70
64;76;88;108
111;111;95;64
80;88;108;95
64;76;88;100
96;92;84;80
92;108;87;64
76;84;106;103
100;100;96;111
111;111;119;119
119;110;84;80
88;111;111;111
119;111;100;96
92;111;119;76
72;92;108;119
119;119;111;87
76;104;118;110
100;96;104;116
111;84;68;84
92;111;111;78
68;76;108;111
110;100;119;95
72;88;118;111
72;72;100;111
119;95;76;72
111;119;111;95
95;111;110;100
96;88;80;80
80;92;110;111
95;87;64;80
119;64;76;88
111;79;64;76
92;103;111;95
103;111;111;108
118;118;100;88
84;110;108;96
102;111;96;84
68;76;80;86
88;103;108;100
84;76;76;92
92;92;92;106
109;92;80;80
76;88;94;94
100;94;92;84
80;103;95;103
96;80;76;80
88;80;100;95
95;76;76;79
87;64;64;76
94;103;95;95
111;111;111;102
100;110;119;111
68;96;111;79
80;125;95;76
68;80;100;111
95;87;76;68
88;102;102;92
80;100;111;111
110;111;100;88
68;72;64;68
84;80;72;76
95;86;84;64
52;48;52;72
94;95;95;76
64;52;76;95
79;52;52;48
52;52;48;72
92;95;95;95
80;78;84;76
68;64;68;76
68;48;44;44
40;56;68;84
87;40;64;86
95;95;95;88
111;68;64;68
103;95;76;64
110;68;64;84
92;92;76;72
72;86;95;95
102;94;84;76
80;80;92;103
111;84;64;87
95;108;100;100
84;84;102;108
96;88;111;111
111;104;108;102
92;100;111;111
118;88;72;72
80;92;102;108
108;100;84;68
68;64;76;95
95;64;56;52
64;84;95;79
64;92;95;52
68;80;86;84
64;56;48;44
68;94;79;48
64;95;95;95
95;52;76;95
103;111;108;111
111;111;84;72
96;119;111;111
95;72;84;104
126;111;111;76
72;76;84;88
96;92;76;64
68;64;72;90
95;68;60;52
64;80;95;95
95;103;108;92
72;64;64;84
92;88;76;68
80;95;87;87
79;95;111;111
111;96;84;88
92;108;92;80
84;111;111;111
92;76;111;111
110;108;96;100
100;111;111;111
103;92;87;78
68;88;119;111
111;104;116;124
127;127;119;95
86;94;95;95
80;80;92;96
100;102;104;104
100;102;96;96
119;68;76;88
102;111;78;64
68;88;108;94
88;92;102;84
64;64;76;92
94;76;72;72
76;68;68;68
92;92;95;103
95;52;68;80
80;76;68;68
76;95;63;44
64;95;79;77
78;68;56;64
76;68;64;64
72;94;92;84
84;88;78;86
94;63;48;64
95;95;95;95
87;95;111;111
104;80;68;64
68;72;92;108
95;110;96;88
80;80;84;94
102;95;64;64
68;76;64;72
84;80;76;72
68;68;84;92
68;52;64;84
79;44;64;86
95;79;52;48
88;95;95;56
68;64;64;92
95;103;103;84
72;80;94;106
111;95;103;111
92;76;68;92
111;74;76;64
68;102;95;64
88;94;111;111
111;94;86;72
68;76;84;100
108;94;88;84
111;64;80;96
111;111;111;111
118;119;127;127
108;96;100;116
119;127;127;127
120;92;111;122
108;104;88;76
72;80;88;111
94;68;92;104
92;76;72;88
109;111;111;103
111;108;100;111
127;68;96;108
118;124;111;111
103;88;110;119
108;96;88;100
108;111;119;124
108;84;72;72
84;92;111;103
109;95;64;84
96;102;102;110
110;111;111;119
125;119;111;103
80;104;127;127
127;127;104;88
96;127;119;127
127;127;127;127
108;116;127;127
127;84;100;116
108;110;100;96
116;95;72;96
119;119;108;80
72;68;64;68
84;108;111;111
111;87;72;68
88;104;104;92
80;76;88;103
95;77;68;64
92;111;111;111
111;108;96;92
76;68;72;84
94;103;103;103
108;95;95;95
64;96;108;110
100;111;108;111
96;102;111;119
118;126;124;108
108;100;108;118
116;100;110;124
95;68;84;96
104;111;111;111
100;92;100;111
111;92;68;95
100;72;94;111
108;111;110;104
108;110;108;118
100;104;96;96
88;80;68;72
92;79;64;64
84;103;95;64
68;92;96;94
100;100;92;84
84;111;95;94
64;80;84;92
100;95;79;79
68;84;111;95
76;79;79;64
72;100;92;92
94;110;92;64
64;76;76;72
84;76;84;95
95;88;68;64
60;64;95;95
95;103;108;110
102;104;96;84
72;80;94;108
111;87;95;111
111;111;119;116
96;96;108;116
125;116;104;118
127;127;127;124
116;116;108;100
108;126;127;119
103;84;84;96
96;104;116;111
88;84;72;84
100;95;110;102
76;68;79;95
108;84;84;80
88;80;64;64
64;64;72;95
60;62;48;64
95;95;109;103
111;111;102;84
80;84;92;102
88;72;64;76
95;95;72;64
72;80;84;103
94;64;84;84
102;103;109;111
110;96;84;76
84;84;86;80
76;76;94;95
95;84;68;64
68;80;76;76
76;64;52;68
76;92;80;76
76;76;68;84
92;87;68;52
48;44;48;64
78;95;63;55
44;68;95;95
92;95;92;95
103;88;76;68
64;68;84;95
77;64;95;79
66;52;76;80
84;78;64;64
64;68;84;92
95;86;64;54
52;48;48;52
64;52;48;40
36;48;64;64
52;52;52;64
76;68;64;76
87;87;94;92
76;76;88;92
76;92;103;95
103;94;80;80
108;111;111;102
111;111;111;92
80;88;102;111
95;72;64;80
100;111;79;95
111;111;119;116
96;84;76;68
68;80;84;80
84;103;95;102
96;100;104;111
111;110;92;84
96;111;108;108
116;95;68;80
88;111;111;111
111;110;100;96
100;119;125;119
109;87;76;96
122;125;119;127
110;84;76;96
124;111;111;96
92;92;92;92
106;92;80;80
92;76;76;68
52;48;48;48
56;68;84;87
87;71;87;76
56;80;92;88
95;92;94;102
103;111;100;76
68;76;111;111
111;104;110;119
119;125;119;116
108;88;76;70
76;68;72;84
100;94;92;102
111;95;111;102
88;88;80;72
80;108;102;100
96;92;80;76
80;76;76;76
92;95;84;76
76;94;84;84
84;76;80;95
103;79;68;79
71;64;84;109
103;108;100;80
72;110;111;87
76;64;72;110
100;96;84;88
84;80;68;64
68;84;95;95
95;64;64;72
80;78;88;84
72;64;76;80
95;95;103;95
88;95;80;72
72;64;52;68
95;95;84;72
68;64;84;95
95;95;100;88
72;68;64;72
76;76;72;68
84;86;92;88
86;92;92;92
84;64;64;52
64;92;95;95
95;72;79;68
84;76;76;87
68;84;76;80
79;86;64;79
103;95;95;95
95;72;68;68
64;76;76;76
76;76;72;72
86;79;48;76
95;95;88;68
64;64;72;80
92;95;87;95
95;80;72;88
95;103;108;111
111;64;68;84
88;92;80;76
84;88;94;80
72;80;86;94
95;100;76;64
64;64;76;72
72;68;56;64
95;63;44;64
88;84;84;78
76;95;95;88
68;52;52;52
68;80;68;64
64;56;52;78
95;44;48;68
78;79;64;48
64;76;92;87
63;44;64;92
95;95;52;68
95;95;95;111
95;64;72;110
111;95;103;111
100;108;119;111
78;68;84;92
110;111;119;110
100;96;104;110
111;92;72;80
84;100;84;76
96;109;94;88
92;76;64;72
84;95;95;76
64;52;68;84
95;48;64;64
80;95;95;95
95;72;79;88
64;72;84;92
95;109;103;88
72;84;92;86
76;76;95;95
84;68;68;76
86;95;95;95
94;80;72;84
92;87;56;64
103;87;52;64
92;95;95;95
95;111;100;84
76;68;80;86
84;80;72;68
68;95;95;95
71;64;76;103
92;72;72;86
76;80;76;64
48;64;64;68
72;92;95;94
88;92;84;80
76;72;92;95
95;92;68;52
72;80;76;52
60;92;76;64
52;64;64;72
84;55;44;48
72;68;64;64
87;92;92;86
86;94;92;68
52;64;68;92
95;63;48;64
92;79;54;48
68;95;95;95
102;102;72;64
80;94;108;79
64;64;64;68
72;92;95;103
103;94;80;64
64;68;64;64
78;94;84;68
64;56;48;52
72;87;72;56
64;64;64;72
76;72;64;64
68;84;84;68
56;52;76;72
64;52;48;52
64;79;79;86
86;78;72;68
64;68;68;64
64;78;68;64
52;72;87;63
44;64;92;87
79;62;60;48
64;94;79;77
60;52;64;64
76;95;95;95
108;100;92;96
100;76;64;64
88;95;95;103
84;64;64;68
72;72;64;64
80;95;90;84
76;78;68;84
95;87;64;52
64;76;84;95
95;95;95;103
92;92;88;88
84;92;111;68
64;111;87;93
87;64;88;100
84;68;80;100
103;103;110;110
96;84;76;68
76;76;64;68
76;94;84;95
95;95;103;76
64;76;100;95
94;64;72;88
88;88;76;64
64;76;64;52
64;80;78;64
63;87;72;64
64;68;86;76
72;84;80;94
95;95;72;68
84;88;80;84
84;84;76;68
64;64;68;80
80;95;79;63
52;68;95;95
95;56;64;68
95;95;76;68
64;72;76;76
92;84;78;72
64;64;78;95
52;48;52;76
95;92;84;76
68;68;76;76
64;48;52;64
64;70;76;76
84;95;86;84
72;76;84;92
95;95;70;64
86;103;100;84
84;100;84;72
68;64;52;48
68;76;72;68
78;95;79;79
68;52;76;80
86;95;79;62
52;64;76;88
95;64;86;95
103;95;95;72
68;95;100;76
64;68;84;103
93;56;64;100
95;56;64;76
68;72;76;92
84;76;64;68
76;76;68;64
64;76;76;68
84;95;95;95
95;102;84;68
64;76;95;95
60;52;64;86
95;95;103;95
68;76;108;111
111;100;80;92
110;100;84;68
84;92;86;92
92;76;68;68
68;72;68;68
56;64;64;56
48;40;48;64
68;78;72;64
64;48;40;52
68;79;79;61
40;52;84;79
52;44;52;68
78;68;56;52
52;52;68;87
79;54;44;44
44;48;64;79
84;95;79;62
48;64;80;94
80;95;95;95
87;103;84;76
64;72;76;68
68;95;95;95
95;68;64;64
72;95;103;108
100;92;76;72
88;109;100;84
72;84;108;92
80;80;76;88
95;80;68;64
76;95;95;76
68;84;95;95
95;77;64;64
68;92;103;100
68;64;68;68
64;64;80;95
71;64;94;103
111;77;68;80
88;111;109;92
72;64;64;76
92;103;103;95
88;108;108;96
84;80;72;80
76;64;48;52
64;64;64;64
95;40;64;76
86;95;78;76
68;84;95;94
76;72;78;92
95;71;56;64
92;87;52;68
86;95;87;70
64;70;64;52
72;68;76;86
68;64;72;78
92;84;72;64
64;64;64;64
64;64;52;44
52;76;68;64
68;52;40;48
68;87;87;87
86;95;79;60
52;64;72;92
84;95;87;68
64;95;92;80
72;80;94;103
95;56;64;84
95;95;79;77
68;74;87;87
95;110;108;100
104;111;110;108
88;84;92;108
102;110;92;84
84;100;111;111
111;87;72;64
76;80;84;84
76;64;64;84
95;71;64;68
71;56;52;72
103;44;64;72
72;84;76;64
64;64;78;87
92;92;72;68
68;64;52;52
64;68;72;76
64;48;56;76
95;46;48;64
84;79;63;54
64;72;68;84
95;95;94;84
64;64;68;80
95;79;52;52
72;92;95;95
102;95;87;79
86;95;95;95
70;68;80;88
96;92;76;68
80;84;72;84
95;95;62;52
72;95;95;87
95;78;64;68
110;95;87;76
64;80;76;76
72;64;64;68
68;72;68;76
95;44;64;86
95;79;52;64
92;95;95;95
108;92;76;80
102;108;111;95
76;64;92;104
111;95;87;64
80;111;102;110
100;76;91;104
76;68;76;94
102;103;88;72
84;100;95;88
102;102;96;92
80;72;68;95
95;64;111;95
95;111;111;95
68;80;96;100
92;92;92;110
111;95;64;80
111;68;72;80
100;95;64;68
84;100;88;84
92;103;111;111
111;95;64;84
100;103;74;64
64;68;72;80
94;95;94;100
108;111;92;84
84;92;111;95
70;64;64;64
72;64;68;80
76;88;84;76
80;76;64;64
68;95;87;62
48;68;76;78
84;86;95;95
84;64;56;48
48;48;70;68
80;87;40;64
84;95;79;79
78;64;72;94
95;95;80;72
76;68;64;64
92;79;87;95
92;95;102;111
103;95;94;95
87;72;88;96
110;111;111;119
110;96;84;92
96;92;84;72
80;76;72;72
102;102;102;109
111;111;108;92
72;100;102;84
80;72;68;72
88;95;64;52
68;110;52;68
84;95;103;95
64;80;86;84
88;80;76;72
88;84;80;95
95;103;103;109
106;108;92;84
80;100;92;100
96;92;92;76
76;100;103;103
108;95;92;79
68;68;80;80
76;80;76;72
72;64;48;40
64;76;95;79
95;95;84;84
76;95;95;95
95;84;64;79
103;100;80;64
68;80;80;68
56;64;64;78
76;68;52;72
95;63;44;64
92;95;94;95
94;103;103;95
64;88;111;93
64;76;92;110
108;96;92;108
111;111;111;111
119;104;80;72
76;92;92;84
92;108;95;79
64;88;108;111
111;110;104;119
95;76;72;92
96;92;88;80
72;79;94;86
88;102;102;108
111;111;111;119
100;76;72;80
104;95;68;64
80;88;76;84
92;102;103;103
103;96;76;64
72;84;95;103
111;79;64;64
84;100;106;95
95;103;111;110
92;88;76;76
76;88;103;95
88;76;68;76
94;95;88;64
64;64;68;76
80;95;95;95
103;103;100;108
111;111;103;95
95;76;72;88
110;87;64;80
111;79;64;84
111;95;111;111
111;116;119;111
111;119;127;127
127;119;84;96
124;127;127;127
127;135;127;127
111;80;96;116
127;109;76;84
127;119;100;84
88;92;108;111
104;110;110;96
80;72;64;64
84;103;103;108
110;108;88;84
88;100;80;68
68;76;68;64
64;64;64;76
78;68;64;68
84;94;95;95
95;84;72;68
76;88;95;95
100;103;95;110
100;92;72;64
84;95;64;64
76;103;102;110
95;64;68;72
76;92;80;64
64;52;52;68
80;95;94;84
76;64;64;64
76;95;95;87
79;52;72;68
64;68;72;64
56;64;72;87
54;48;64;76
86;92;95;94
84;64;64;68
80;95;79;87
79;79;64;64
80;103;95;64
76;111;95;95
111;93;68;76
84;104;100;92
88;84;76;84
84;88;64;56
52;64;76;92
95;88;76;64
68;78;92;95
86;80;64;52
48;52;68;94
94;95;94;76
64;52;52;48
52;68;68;64
72;92;95;95
87;103;108;108
102;102;108;110
100;88;76;68
64;64;52;52
64;92;92;84
84;95;70;64
64;92;87;68
52;64;84;95
103;103;100;80
76;76;94;103
111;111;111;110
68;80;111;111
87;87;70;76
92;111;71;76
108;102;96;92
80;80;80;76
80;84;76;68
80;95;87;95
95;74;64;92
111;74;64;68
80;111;95;95
79;64;64;72
80;64;52;64
64;64;56;64
72;78;64;76
93;95;54;64
64;80;84;94
95;95;95;80
92;95;95;64
64;80;94;103
95;64;64;72
76;76;76;94
103;88;72;64
84;95;95;52
76;111;78;71
64;88;88;84
84;92;84;72
84;92;86;84
94;95;84;68
64;64;64;64
72;87;71;48
52;68;86;94
95;52;64;80
95;52;48;64
80;86;95;95
86;80;92;92
88;92;95;103
108;103;95;95
87;87;68;96
111;111;111;111
111;119;124;110
96;80;76;72
96;119;78;64
88;104;100;88
80;68;68;64
64;76;88;95
95;84;72;68
72;68;84;76
68;92;95;95
95;79;64;68
84;95;103;95
68;64;76;84
88;76;72;94
95;88;76;88
95;95;95;103
92;84;88;100
96;76;64;79
103;84;68;95
76;64;60;95
95;95;87;103
88;80;84;92
104;108;110;110
104;88;84;92
96;102;96;80
76;102;111;95
95;95;84;64
72;84;84;92
95;95;103;111
111;92;76;103
108;92;80;72
80;88;96;108
103;100;88;80
76;76;72;68
68;86;95;95
95;52;68;76
68;68;76;92
92;72;64;52
52;52;64;68
78;92;71;44
48;52;68;76
92;95;95;95
71;52;64;68
68;68;56;48
68;95;71;54
48;68;68;64
72;87;95;71
56;48;64;68
76;95;95;95
92;84;84;95
103;110;95;78
64;64;76;111
95;68;72;84
96;88;94;103
96;95;100;102
92;111;95;86
76;68;84;104
111;108;100;111
111;68;68;88
111;78;68;100
111;100;92;84
84;76;76;88
108;95;103;102
84;100;108;96
80;80;76;76
64;72;95;95
103;95;103;84
68;64;68;76
92;95;92;68
64;72;76;76
80;94;95;95
94;88;76;80
84;92;103;95
79;64;64;80
103;95;79;68
64;68;68;92
109;103;111;111
106;84;76;84
96;111;87;109
104;84;72;68
88;102;110;100
80;102;102;96
80;64;64;64
68;88;94;92
94;108;111;95
68;72;84;84
80;95;103;106
108;88;72;72
64;64;92;95
95;95;93;79
64;68;68;68
72;103;95;103
102;111;111;68
80;100;100;88
88;108;111;111
111;111;93;79
68;84;92;92
92;92;80;68
68;64;80;95
87;95;60;64
92;100;84;72
76;84;76;94
95;95;95;76
64;64;68;84
92;95;77;64
64;108;79;56
68;92;95;103
100;102;92;68
64;76;108;95
95;111;87;79
64;84;102;111
111;111;108;80
72;96;110;111
106;88;84;100
110;111;95;64
88;108;95;78
64;88;108;111
111;118;111;100
96;92;92;92
100;111;76;64
76;84;92;108
92;80;68;64
64;68;68;68
76;92;90;78
86;84;92;84
84;76;72;68
76;95;71;52
92;63;52;52
76;95;95;95
103;111;64;80
111;71;64;72
84;108;111;102
96;92;84;100
111;64;68;84
94;98;76;68
92;92;103;110
109;110;84;68
64;84;111;95
95;111;95;95
109;111;84;95
100;84;68;76
76;64;64;76
88;108;111;79
64;72;68;64
84;95;95;95
92;72;64;60
52;64;72;86
72;64;68;76
52;54;63;44
68;95;79;79
79;52;64;86
92;95;103;95
95;95;111;108
108;100;92;92
104;111;102;88
80;100;111;95
64;84;88;94
108;111;111;111
108;124;111;94
76;96;116;111
76;72;80;72
88;111;87;76
64;64;76;92
92;102;108;102
110;111;111;111
119;111;72;88
88;88;96;96
84;88;80;84
94;100;88;84
102;110;100;84
80;94;110;103
64;92;102;88
84;102;106;110
108;108;110;110
88;84;84;100
100;106;108;84
68;64;64;68
76;84;92;84
64;64;72;76
72;78;88;76
64;64;68;76
84;64;48;60
52;44;48;64
64;64;76;79
84;95;87;63
48;84;95;63
48;72;103;63
52;76;95;95
95;56;64;64
68;72;92;95
95;95;56;72
111;66;52;68
92;103;111;100
88;100;111;87
68;64;72;84
102;95;71;64
64;68;72;84
86;76;64;64
76;94;86;76
64;48;48;40
64;64;68;68
68;64;64;44
44;48;40;48
64;76;79;87
76;64;52;64
76;64;64;76
79;92;92;68
64;68;92;95
95;70;79;95
94;88;80;64
64;52;48;52
72;79;44;52
72;90;95;79
48;68;76;84
94;95;80;64
52;64;64;64
68;86;79;52
52;52;84;86
94;95;95;103
100;92;88;88
80;76;80;76
68;76;92;95
95;95;94;80
64;72;88;95
79;56;64;68
80;94;95;87
64;60;52;64
68;94;95;68
52;72;88;95
103;87;68;64
64;64;72;80
80;95;77;60
64;86;86;88
92;76;64;48
64;68;72;94
95;95;95;103
106;88;68;64
72;92;103;103
111;111;111;92
76;72;72;88
92;88;68;64
80;77;64;84
94;95;87;64
64;72;68;76
76;84;95;78
64;64;72;86
95;95;95;84
72;84;95;103
103;106;108;100
100;84;80;76
84;102;103;106
111;95;64;68
96;92;80;76
80;88;80;76
76;95;103;103
84;76;84;84
80;109;95;93
86;64;76;102
111;95;64;68
80;84;92;84
80;86;84;84
94;102;95;111
109;88;72;92
111;111;111;95
78;76;92;111
111;64;88;111
111;119;119;119
100;96;110;111
72;84;100;110
118;111;68;72
88;111;111;103
64;110;111;111
111;92;72;92
108;96;92;102
111;79;64;72
76;72;72;94
95;71;56;64
72;84;95;95
103;111;95;78
68;108;111;95
78;72;100;111
111;92;72;68
64;76;94;103
109;96;72;64
76;92;95;52
76;92;94;106
95;76;72;76
86;95;52;68
108;52;72;95
103;100;88;88
94;108;103;96
84;76;64;64
64;94;95;95
103;111;111;95
64;80;104;108
96;84;68;64
68;76;86;95
109;95;92;92
102;102;102;92
80;72;64;80
88;103;111;95
111;111;118;118
110;110;110;119
127;103;84;80
108;95;68;72
96;108;84;76
84;103;102;96
88;108;111;108
108;104;96;76
68;72;68;72
88;84;72;76
95;44;68;92
92;88;95;95
84;64;87;80
64;80;76;72
84;70;72;87
72;76;76;76
76;84;76;72
84;72;68;76
76;78;70;76
79;76;76;76
76;76;72;72
86;68;76;66
92;72;72;72
84;95;95;80
64;64;64;64
78;79;52;52
44;64;78;86
95;46;64;76
92;95;87;95
108;102;100;108
110;100;84;84
80;94;94;84
68;64;68;84
84;92;95;103
108;108;111;111
102;100;84;76
64;80;76;80
88;103;103;103
84;84;84;80
80;95;103;95
68;64;64;64
72;103;95;71
64;64;64;64
84;84;92;92
92;88;68;64
64;68;88;95
79;48;68;76
95;93;78;79
64;72;92;92
84;111;103;95
87;64;68;94
92;100;108;111
111;79;68;64
84;102;102;88
92;100;111;95
64;72;76;72
72;84;103;95
95;103;96;76
68;64;64;68
84;92;84;64
64;64;84;95
95;92;95;95
95;108;111;111
104;92;84;88
110;95;68;64
64;80;92;92
92;111;87;72
72;64;64;76
106;56;64;68
84;94;103;110
108;92;72;64
72;88;84;88
109;71;52;76
103;79;79;87
103;103;94;72
64;64;72;76
95;48;68;84
95;87;95;111
95;79;72;64
88;95;64;64
64;64;68;84
94;76;64;64
68;92;95;87
71;60;52;64
76;76;76;64
72;79;52;44
64;95;79;48
64;84;92;76
95;79;48;68
95;52;64;68
68;95;79;56
64;103;79;52
64;94;103;103
102;111;111;111
79;72;88;108
111;111;103;86
72;84;102;92
80;92;108;111
111;111;87;68
92;96;111;103
95;68;68;80
88;88;96;108
111;95;111;111
103;109;111;119
111;80;100;96
96;108;108;96
96;111;76;68
80;110;111;111
95;103;111;92
88;119;95;95
76;72;96;111
119;119;108;80
76;102;95;64
80;111;87;68
64;80;84;84
76;88;72;64
64;72;92;87
52;68;88;95
95;71;95;108
102;108;111;102
80;68;64;64
76;111;79;68
64;64;64;72
76;95;75;79
87;71;79;64
88;108;108;111
111;95;95;95
68;88;100;111
111;70;64;80
108;100;100;104
104;100;108;102
100;110;108;111
100;80;68;94
108;111;111;95
76;80;104;100
104;92;68;64
72;100;94;84
84;92;86;84
80;76;102;95
70;64;94;111
103;111;111;110
92;84;76;92
102;111;95;95
68;80;88;111
111;111;111;118
104;112;127;127
119;86;88;108
108;111;110;122
119;111;127;116
100;104;100;96
100;104;100;104
92;72;76;80
92;110;95;64
80;111;95;68
72;108;87;68
64;92;111;95
64;68;64;68
76;84;92;103
79;64;64;64
76;95;95;103
109;111;111;111
104;100;92;96
111;95;68;68
76;100;96;92
111;111;95;64
96;111;111;111
111;78;72;96
111;95;72;72
92;111;111;68
84;102;111;111
108;116;119;108
104;116;127;103
76;84;88;100
108;100;76;84
111;68;68;64
64;88;100;111
108;111;111;108
119;111;92;76
72;80;84;88
92;84;68;64
52;64;94;92
95;95;76;79
64;76;100;100
92;92;100;94
108;64;64;72
108;103;94;94
88;111;95;64
84;92;111;111
111;87;68;80
108;100;76;76
92;95;72;64
80;94;88;76
76;95;95;100
103;92;84;86
92;108;95;95
68;92;111;95
68;80;88;102
102;96;108;111
102;92;108;92
72;64;76;102
103;96;88;86
88;94;108;111
111;111;86;68
72;88;92;106
111;111;111;95
72;72;80;68
80;92;86;88
84;94;100;108
95;64;80;102
111;111;103;111
92;95;108;80
76;64;80;100
111;64;68;64
84;92;94;109
110;111;119;116
108;84;72;80
102;108;111;119
119;111;100;96
100;100;92;84
80;100;111;95
68;72;92;106
110;100;84;96
111;64;64;76
84;86;76;76
86;103;103;108
111;95;87;64
72;80;100;96
84;84;100;103
106;106;100;92
88;102;111;110
96;80;80;92
96;92;80;76
84;103;103;108
100;88;72;64
72;86;95;94
84;76;64;64
64;94;95;95
95;79;64;64
80;103;103;109
92;92;102;108
108;111;111;111
104;108;116;119
110;108;116;110
84;76;96;111
111;79;84;64
104;111;68;76
84;104;111;64
88;92;92;92
111;108;96;84
80;108;111;93
68;64;64;76
94;92;84;84
88;103;95;64
80;102;108;92
80;84;84;88
102;100;84;84
102;95;111;94
80;84;92;84
72;72;86;92
92;92;92;80
72;76;92;95
84;64;60;79
68;52;68;84
84;80;92;95
95;95;111;79
64;72;84;94
109;95;111;111
111;88;72;93
111;108;111;119
122;127;122;116
120;127;124;126
127;120;116;127
124;126;112;92
84;100;126;127
127;127;127;127
127;104;106;100
117;96;103;116
84;84;95;94
94;95;86;72
100;92;76;68
68;80;84;84
94;92;88;100
111;95;111;95
72;80;102;111
87;68;86;70
68;64;72;76
76;86;94;92
76;64;64;52
72;95;79;60
52;64;80;95
95;63;52;64
84;103;95;103
92;72;71;95
76;68;92;92
76;72;84;95
95;76;64;95
76;64;52;52
48;48;44;48
47;40;64;64
68;64;64;68
72;68;64;48
64;79;87;79
52;64;94;87
79;52;48;68
76;78;80;68
68;88;87;44
64;68;68;84
94;68;64;52
64;72;72;84
68;52;48;68
95;36;64;68
78;86;79;44
64;95;95;79
76;78;64;52
68;109;95;103
94;76;64;64
76;100;95;79
64;68;86;92
84;109;108;102
84;76;64;68
77;71;87;103
88;76;76;84
84;76;72;76
68;68;84;78
68;64;44;60
60;53;40;64
92;63;44;64
94;63;48;48
64;95;79;68
71;60;60;52
64;76;92;78
76;72;64;48
64;64;95;63
48;52;92;95
95;95;95;109
92;72;84;100
111;111;108;88
76;88;108;111
108;100;102;102
110;111;111;108
111;118;125;127
111;111;84;80
104;119;127;127
127;127;127;127
127;111;127;124
96;111;126;104
100;126;124;124
127;95;80;92
116;111;111;127
120;100;100;96
96;111;119;110
108;108;116;125
122;108;100;88
84;96;102;104
96;88;80;68
80;102;111;110
92;76;92;111
111;111;96;80
88;111;111;111
111;72;72;104
111;111;100;88
72;68;68;79
87;95;111;111
79;72;100;111
111;119;127;127
126;118;100;88
96;100;108;119
110;100;100;100
100;108;100;92
80;88;100;104
111;95;79;68
72;88;100;106
110;111;95;64
84;111;111;87
72;84;88;92
103;96;92;88
80;86;111;106
100;84;72;72
96;108;110;111
111;111;109;111
95;76;88;88
72;80;104;111
111;64;68;80
88;92;111;108
96;88;84;86
100;94;94;84
96;95;64;92
111;95;95;70
68;64;72;76
88;84;80;92
95;68;64;76
76;64;78;95
84;64;52;48
48;76;95;95
88;80;103;95
109;100;92;80
84;111;95;68
64;68;84;80
88;79;52;72
84;72;72;68
92;95;95;103
94;72;64;52
76;88;76;76
64;64;72;76
92;78;68;56
48;76;95;95
95;95;103;92
76;64;64;64
64;78;95;48
64;64;64;64
88;87;95;72
52;44;52;76
92;79;60;79
79;95;103;92
88;100;88;84
76;72;64;52
64;64;64;84
92;95;95;95
80;64;76;88
95;84;64;52
64;80;95;95
95;103;84;80
100;95;95;111
111;95;79;68
68;76;100;111
95;64;76;84
104;95;64;64
76;92;76;84
103;79;71;56
64;76;95;95
70;64;68;80
80;76;86;84
80;72;68;72
94;95;95;84
80;95;103;110
103;88;76;80
80;64;64;72
84;92;95;60
68;103;103;100
84;96;95;71
64;64;76;100
103;92;76;64
64;76;102;95
103;80;76;94
68;74;95;95
95;87;68;64
76;92;111;93
64;80;92;100
111;111;96;84
80;76;76;84
76;68;68;84
92;84;76;80
95;52;64;76
92;95;87;87
95;79;109;111
100;100;100;119
119;76;80;111
111;72;68;76
92;111;95;64
76;80;80;76
84;108;111;111
92;80;68;76
92;111;109;100
84;76;76;80
92;94;84;95
110;87;64;64
76;92;102;109
94;72;64;64
80;102;95;102
100;111;95;103
110;84;68;72
80;84;92;103
102;111;111;92
72;68;64;92
92;110;111;111
111;94;68;72
88;92;80;88
92;92;100;95
95;95;111;102
88;76;80;92
100;87;87;76
68;64;64;76
80;84;102;103
95;103;109;88
68;76;108;111
111;111;111;92
80;96;100;100
84;64;64;66
52;76;95;95
103;103;108;110
111;103;78;68
76;92;111;64
72;80;100;111
111;96;68;76
95;111;96;88
88;92;108;110
84;68;64;68
64;80;88;84
84;95;86;84
76;76;88;95
103;84;72;68
68;88;95;95
95;100;76;72
80;80;76;68
92;63;52;68
95;95;92;84
80;80;95;95
79;52;64;76
84;94;103;103
95;68;64;52
64;72;68;76
80;72;64;48
52;64;84;86
95;44;64;68
64;92;79;56
48;52;72;95
71;48;48;48
64;64;64;80
95;78;56;52
76;95;95;95
84;68;64;64
64;52;52;64
92;79;71;79
95;86;68;52
64;48;72;87
95;48;52;72
92;95;95;95
94;76;72;68
80;86;103;95
68;64;72;84
76;68;84;95
94;68;56;52
76;84;94;95
87;54;64;76
94;95;84;64
60;52;48;52
68;95;84;76
68;64;52;52
64;92;87;68
56;78;79;95
79;52;76;88
92;76;84;95
95;79;64;68
56;64;64;76
68;76;95;44
84;95;95;95
86;80;68;52
72;94;95;94
84;95;92;80
64;68;84;72
68;68;84;92
95;71;64;60
52;64;64;68
64;95;95;95
95;109;94;68
64;72;80;76
84;95;95;103
111;95;64;76
92;111;111;100
84;76;72;64
64;72;86;94
95;108;94;84
96;84;64;56
64;64;68;72
76;95;63;48
68;95;95;80
64;68;92;95
95;103;84;68
64;111;95;108
96;92;96;102
111;87;64;80
102;94;102;111
111;95;86;68
100;111;108;96
92;100;110;111
111;76;68;92
110;111;111;119
118;104;110;118
124;111;111;111
95;76;96;110
118;111;111;111
111;87;80;110
108;110;96;100
104;96;72;68
92;102;100;80
72;80;92;95
100;88;80;84
95;100;84;64
68;84;103;95
95;84;72;80
94;95;87;78
64;76;102;103
100;111;111;104
88;76;72;80
88;100;88;84
84;103;95;78
78;64;80;84
84;95;95;79
64;68;110;110
111;111;92;72
80;119;125;95
72;100;111;104
88;100;92;88
88;80;84;84
72;84;103;110
111;108;92;92
96;94;80;64
64;68;84;84
84;103;95;69
64;76;103;95
95;64;68;92
100;111;108;104
96;100;100;80
68;84;94;102
103;88;76;68
76;76;88;95
79;64;84;95
79;64;92;95
79;64;68;76
102;103;111;103
86;95;108;80
72;88;111;111
111;111;88;72
76;76;64;72
95;103;95;77
64;64;56;64
76;79;76;103
95;52;76;95
87;64;80;88
102;88;88;80
84;110;108;100
92;72;72;80
103;103;95;110
111;100;76;100
104;104;80;68
84;84;84;92
88;111;95;68
64;64;64;72
84;95;95;95
111;108;92;80
84;111;110;111
104;72;64;64
68;76;68;72
76;76;92;78
68;72;95;92
78;76;92;95
76;64;64;76
92;95;103;111
95;64;76;84
100;111;95;68
64;64;80;88
92;103;111;111
108;100;100;111
111;84;78;108
80;68;80;100
100;110;92;68
64;68;72;95
95;52;64;92
95;95;80;68
76;80;68;64
78;95;95;79
64;76;84;92
102;102;94;92
80;72;72;86
84;84;72;94
95;68;52;52
64;84;95;95
84;64;79;95
111;78;64;64
80;92;94;80
72;72;64;80
95;48;76;95
95;95;72;64
48;64;76;84
76;86;76;76
72;86;92;92
95;95;94;92
102;95;64;64
68;103;103;110
100;76;64;64
76;100;76;72
88;95;103;87
52;64;64;68
76;95;103;103
95;110;88;72
64;68;94;103
108;102;76;68
64;64;68;76
92;95;103;100
94;80;72;68
80;76;68;68
84;94;88;86
80;68;64;64
64;52;40;56
76;78;52;40
44;56;64;70
79;95;95;78
68;52;48;64
64;72;84;87
95;94;95;95
100;111;102;92
96;102;100;94
92;84;72;88
109;87;79;64
100;110;96;84
76;64;64;60
64;72;72;72
64;64;64;68
68;84;78;76
76;72;80;95
71;71;62;60
48;68;84;95
87;64;72;94
103;103;95;80
88;95;71;64
64;64;76;95
95;95;100;84
84;111;95;93
76;76;64;76
100;71;64;68
76;88;76;64
64;92;92;95
95;78;68;84
88;92;84;64
64;64;80;95
87;95;100;92
94;100;92;76
64;68;80;95
92;80;76;72
68;52;63;63
48;64;95;87
87;60;64;72
86;92;72;64
64;76;94;95
95;77;64;64
64;76;95;95
109;95;68;64
80;111;103;100
100;111;100;102
111;111;111;111
102;111;103;111
92;72;80;116
119;119;100;84
80;84;108;100
76;64;64;72
92;95;80;64
76;95;95;103
108;111;111;111
95;103;109;111
111;111;86;86
84;116;116;110
96;76;72;84
92;111;111;111
111;76;72;84
111;95;64;64
92;111;111;111
111;119;100;92
116;79;80;111
117;108;80;68
64;72;84;92
84;92;72;68
64;64;68;68
64;64;80;95
95;92;95;103
79;64;68;80
80;103;87;70
64;68;95;108
109;108;110;111
111;119;116;104
100;84;72;72
84;111;111;68
72;88;84;76
80;94;111;95
64;64;80;100
103;100;84;72
68;64;68;72
80;76;64;64
64;68;76;94
95;95;92;80
72;76;84;95
103;109;103;88
80;84;111;111
111;111;64;84
102;119;85;68
72;92;100;96
88;84;76;68
64;64;64;68
88;88;72;64
68;78;76;78
64;52;64;64
76;95;44;64
76;78;84;86
86;95;95;103
111;95;64;72
80;95;95;109
108;80;68;95
111;111;110;84
72;64;64;92
111;102;92;72
64;64;64;68
64;52;72;88
84;84;95;95
95;64;64;72
84;102;103;92
64;64;64;72
80;95;88;80
76;95;95;79
64;64;68;92
103;100;80;64
64;72;76;76
94;95;94;88
84;92;103;111
111;111;108;96
80;84;108;95
92;87;64;72
102;95;64;72
92;94;80;84
72;68;64;64
68;90;84;72
68;64;64;64
64;76;68;64
52;52;56;56
64;68;79;68
68;68;64;52
48;64;64;76
86;87;63;46
48;95;95;87
95;92;68;64
68;103;95;56
80;94;86;76
84;102;92;64
72;110;95;79
68;80;92;80
80;100;103;103
96;102;100;102
100;111;111;111
111;119;96;76
68;72;92;111
111;111;104;80
68;84;111;111
111;111;100;76
76;80;92;100
102;111;84;76
84;96;102;111
111;111;111;100
80;72;80;88
84;76;64;64
64;68;76;70
68;84;90;92
95;79;62;52
64;92;84;80
84;95;95;95
95;95;64;64
84;110;79;64
84;92;88;84
92;108;109;111
111;110;96;88
84;84;96;111
111;64;92;108
111;111;111;119
127;78;96;119
127;127;111;80
100;108;100;96
102;118;126;111
80;80;88;102
119;111;111;108
84;103;118;100
92;127;127;126
100;84;72;72
68;68;80;111
64;111;111;111
108;102;84;72
95;92;76;94
68;95;68;95
72;64;64;72
76;92;103;103
88;76;68;64
68;84;95;95
95;88;76;76
80;84;95;92
76;76;68;80
88;95;78;60
52;68;92;95
92;79;54;52
64;64;68;64
72;95;95;87
68;64;76;102
108;95;95;79
64;76;76;76
72;64;64;68
80;95;76;92
95;95;95;100
92;80;64;64
52;64;72;76
76;72;64;64
68;68;76;95
79;54;64;94
95;95;86;76
76;68;52;64
76;95;48;64
94;95;95;95
76;64;64;76
95;79;64;92
95;87;95;111
95;95;76;72
110;95;64;80
111;102;88;76
68;68;72;80
95;95;95;76
64;64;64;68
68;95;95;95
103;103;94;80
80;108;95;95
111;102;76;78
68;72;106;111
111;95;86;76
72;111;104;96
96;100;96;108
96;96;80;72
72;80;76;88
95;103;110;111
104;88;76;68
84;86;72;76
92;103;95;64
64;108;111;110
108;96;104;111
119;119;111;119
103;80;108;118
116;108;96;104
116;126;111;76
76;96;108;111
111;119;95;72
76;96;104;111
111;78;68;84
111;111;111;108
92;96;111;118
108;92;72;64
72;111;79;64
84;111;106;80
68;79;103;100
80;92;94;102
108;111;111;95
64;92;84;76
84;92;111;111
111;111;102;100
88;76;84;96
92;92;76;72
72;76;88;94
95;79;64;56
72;108;109;95
64;80;88;100
96;84;68;68
76;72;64;64
64;68;76;76
76;95;95;95
95;95;109;108
96;110;111;111
111;111;111;127
111;126;108;84
84;86;86;68
92;119;119;119
118;112;110;104
100;100;80;84
100;95;64;72
96;111;111;111
111;108;96;100
110;119;118;110
100;110;119;127
127;127;86;84
124;111;127;127
116;96;80;100
126;87;72;72
88;92;84;72
64;64;64;52
68;88;86;95
95;87;79;64
84;95;79;95
87;64;76;100
96;100;80;64
64;84;92;92
84;84;88;92
92;111;95;111
111;111;95;111
108;96;104;127
111;72;96;111
111;127;119;124
108;104;96;88
96;111;68;80
100;119;111;87
68;84;100;111
110;111;111;111
110;119;116;84
76;72;80;108
111;111;86;68
96;119;111;119
119;118;124;118
100;96;96;96
92;88;100;92
80;72;72;84
108;87;64;76
84;84;92;92
80;72;68;64
72;94;84;84
72;84;84;64
64;95;84;64
52;63;71;60
48;48;48;52
72;93;95;63
48;68;68;76
95;71;48;64
78;94;78;76
68;76;78;76
78;68;48;40
52;76;87;95
63;48;64;78
80;78;76;68
68;86;76;52
64;95;79;69
60;64;88;95
94;87;52;68
92;84;84;95
95;52;76;95
100;95;103;111
103;111;94;86
68;76;88;96
111;95;93;72
64;80;88;102
111;103;111;100
102;119;119;119
119;111;119;124
100;84;72;80
100;111;85;76
68;84;96;92
104;94;68;79
95;111;111;96
80;72;64;64
84;95;68;64
84;103;111;95
95;95;64;76
92;95;64;72
84;94;88;80
72;68;68;95
95;95;102;92
80;68;72;76
88;95;95;52
84;111;95;111
92;84;95;103
111;119;126;118
96;80;84;88
92;92;96;92
72;64;64;64
80;95;87;78
64;64;64;52
52;48;52;72
86;92;95;92
95;103;95;64
76;100;109;108
96;104;92;68
72;92;84;68
68;102;108;109
111;95;64;68
68;64;64;68
84;95;48;64
84;79;63;54
52;76;95;95
92;64;64;64
68;84;84;64
52;64;72;68
72;64;64;76
95;79;48;48
68;86;95;78
68;72;76;80
76;76;64;76
90;79;48;48
64;72;76;68
68;78;68;52
48;64;68;70
70;64;56;52
64;56;44;64
84;79;71;79
79;77;87;95
80;64;56;54
60;48;64;88
92;95;95;95
92;68;64;64
68;68;76;86
95;95;60;56
52;52;48;64
76;76;64;64
76;95;95;95
92;95;95;92
94;86;80;76
72;88;84;92
109;52;64;76
94;95;95;103
96;111;111;111
92;84;88;76
72;102;110;111
110;111;111;95
72;76;92;108
102;100;76;64
70;71;64;64
68;76;64;68
95;95;95;87
60;80;111;95
95;95;87;72
68;68;84;108
95;109;111;111
111;88;95;104
92;102;100;88
96;111;95;95
68;84;100;111
111;110;96;100
110;119;103;79
72;92;92;92
92;111;95;93
68;84;100;108
111;111;111;96
96;84;72;72
94;111;103;95
86;95;111;95
76;72;84;92
84;111;95;87
64;76;92;100
102;94;106;111
111;111;110;108
88;80;72;80
84;102;111;111
111;88;72;64
64;64;95;80
64;68;64;68
76;76;64;64
76;87;92;80
64;52;63;63
48;44;64;76
68;84;95;63
64;68;76;64
60;87;72;64
64;84;95;79
68;48;64;95
95;92;72;52
52;52;64;76
72;64;64;56
72;71;40;52
64;64;68;64
68;76;79;76
72;48;63;87
86;76;64;64
52;64;52;44
48;78;79;63
48;80;95;63
44;64;95;52
48;76;84;76
84;79;56;52
76;79;44;68
94;95;79;63
64;92;95;68
60;68;100;79
64;72;108;103
108;111;111;111
119;111;110;84
72;72;72;76
80;94;92;92
102;100;84;68
64;76;95;102
109;95;103;80
72;68;64;68
84;111;95;79
64;102;111;111
108;96;92;92
96;84;88;88
102;106;92;80
72;86;100;95
100;92;80;100
102;103;108;102
92;80;72;64
64;72;72;84
80;94;92;72
68;92;95;71
60;52;52;48
64;92;94;86
64;72;84;94
84;92;84;80
72;84;95;95
95;64;76;88
92;102;102;111
111;111;108;88
80;84;92;96
102;100;88;76
84;88;100;103
87;72;111;103
110;102;111;119
111;119;124;122
124;127;119;103
103;86;80;84
116;76;84;92
116;111;95;78
76;84;100;108
84;72;87;95
95;108;92;84
80;76;76;84
109;103;88;76
76;100;79;68
64;72;72;76
84;95;88;92
84;72;56;52
48;76;86;84
84;88;76;72
80;86;88;95
94;95;80;68
76;92;103;95
87;71;68;92
102;95;64;64
80;108;95;64
72;84;111;79
64;84;111;111
111;95;68;80
96;104;111;111
96;72;64;68
64;92;111;71
64;111;95;111
119;111;111;119
127;76;104;124
116;108;100;96
84;84;84;76
96;111;95;74
64;108;95;87
78;86;110;96
76;84;88;84
80;111;95;109
111;100;92;84
88;102;108;96
84;96;111;87
64;92;103;110
111;111;111;95
110;127;124;108
92;96;96;119
119;111;95;103
109;80;96;92
100;104;100;102
104;111;76;64
76;84;92;92
110;111;95;79
64;80;104;111
103;79;68;84
100;92;92;104
111;64;84;100
108;100;100;96
76;64;64;64
72;111;56;64
84;95;79;52
72;95;95;102
111;64;68;100
95;64;64;68
88;95;72;111
87;64;64;72
84;84;88;84
64;64;64;64
64;76;78;95
79;95;80;64
52;76;68;64
68;72;78;90
84;68;68;64
64;76;72;64
64;52;64;86
95;94;84;68
64;64;64;64
76;95;95;95
92;84;84;72
64;72;84;76
64;64;64;64
64;72;86;86
68;64;40;48
72;95;79;63
44;80;95;95
76;76;86;103
95;64;72;92
103;87;64;64
76;88;94;92
84;102;111;111
111;111;111;94
78;72;80;84
96;102;111;111
108;76;68;64
76;104;87;64
96;111;111;110
100;92;110;100
84;80;84;96
102;111;95;78
64;84;102;110
111;95;64;80
92;110;95;64
88;102;88;80
92;111;111;111
111;95;72;72
80;96;100;111
111;92;84;80
84;76;76;84
80;92;103;95
79;76;64;84
100;94;84;84
88;88;88;84
76;92;87;71
52;80;108;95
103;95;87;64
76;84;88;80
64;64;76;86
92;95;92;72
52;64;80;94
86;80;103;95
68;64;64;84
80;92;92;103
100;86;64;64
76;103;95;103
100;76;76;92
64;64;64;72
103;79;62;52
64;84;95;95
103;95;64;64
88;95;98;108
108;100;84;76
80;108;103;102
111;95;95;95
76;68;64;80
108;94;72;64
80;76;64;52
64;76;92;95
79;56;64;52
52;64;68;84
95;79;79;68
52;72;86;76
68;76;76;86
95;95;94;84
84;84;109;79
64;68;84;92
92;111;111;111
111;111;110;108
108;102;110;111
87;76;92;119
111;118;118;108
108;119;126;116
88;80;80;100
119;95;76;72
92;111;64;76
84;84;84;88
88;84;80;88
95;95;111;95
95;64;76;92
94;102;108;100
92;88;80;80
76;72;64;48
64;64;64;76
86;95;71;62
52;72;95;95
79;52;52;64
76;68;52;46
62;79;79;77
76;79;79;79
71;64;68;72
80;80;84;68
68;68;86;92
95;86;68;64
68;86;78;64
64;95;95;95
95;95;78;64
80;88;100;100
84;76;88;95
88;76;76;76
86;92;76;64
64;68;76;68
64;72;72;88
79;64;78;95
94;94;76;72
84;95;95;94
80;80;72;84
86;103;103;103
84;72;80;103
103;100;102;96
100;92;100;102
108;96;88;104
103;108;111;111
119;111;95;72
88;96;104;100
104;111;108;100
96;92;92;88
100;111;95;111
108;92;92;104
111;110;108;96
84;80;92;92
88;103;103;88
76;76;111;87
64;68;84;102
111;79;68;64
64;64;72;92
95;60;52;76
80;84;95;95
79;64;64;68
110;79;56;68
92;95;68;64
64;64;72;72
72;78;92;95
92;80;64;64
68;95;95;87
64;64;72;86
95;103;95;103
111;111;111;111
95;72;76;72
80;84;80;84
86;88;86;84
88;95;86;72
64;64;78;80
84;95;88;68
64;68;68;64
68;92;92;95
92;79;52;68
102;94;88;80
76;64;64;64
76;95;95;95
84;76;80;76
76;84;86;103
103;56;64;80
102;95;64;64
84;95;64;68
92;92;95;103
102;110;102;111
111;111;78;72
84;118;119;111
95;76;72;76
96;111;91;79
64;104;111;100
80;84;111;111
111;96;80;72
84;108;111;111
119;111;103;72
76;80;84;88
104;111;111;104
108;116;119;119
111;124;127;116
100;118;127;92
88;100;119;127
111;78;72;84
88;111;110;96
104;119;92;72
72;84;92;108
108;111;93;68
68;64;64;64
84;102;80;64
52;64;72;95
95;64;84;94
86;84;84;72
84;95;79;71
78;64;64;68
56;76;92;95
95;56;64;100
79;68;103;95
52;88;111;95
110;108;84;72
80;84;80;76
76;80;84;76
64;68;84;78
72;64;64;52
48;64;95;79
63;48;64;80
76;64;52;44
48;64;76;93
87;44;48;68
80;87;95;64
79;84;64;95
86;64;64;80
103;95;103;95
109;79;68;64
76;86;92;107
103;102;111;111
108;96;88;88
100;92;72;64
76;84;94;102
111;79;64;68
80;94;103;111
95;64;84;100
111;111;96;72
64;64;64;92
108;111;95;79
64;80;100;103
108;110;104;119
79;72;68;80
84;88;88;80
68;80;92;88
78;92;95;71
64;72;76;68
64;52;48;52
48;63;87;95
95;95;95;103
111;68;64;72
92;84;80;84
92;110;111;95
79;76;76;64
76;76;92;95
92;80;76;84
88;102;95;56
72;84;92;95
100;95;95;95
95;78;68;79
95;79;70;64
80;111;78;64
76;110;95;79
64;84;102;92
96;88;76;80
94;95;93;74
64;64;64;76
103;103;100;80
72;84;95;100
95;64;64;64
76;103;103;71
64;84;95;111
87;64;64;64
72;80;80;80
95;95;52;64
68;64;64;64
68;84;95;95
95;68;52;48
52;64;64;76
76;64;44;63
87;78;78;76
64;64;90;86
80;76;78;88
84;95;92;88
102;95;103;84
68;64;64;72
84;92;92;103
95;79;64;64
80;110;110;111
111;111;119;104
88;80;72;64
72;80;84;84
80;88;95;109
110;111;68;68
92;95;95;79
68;96;111;68
76;80;108;110
111;80;95;88
86;96;72;94
79;84;92;79
76;88;84;76
95;72;84;86
76;95;68;92
76;79;84;64
87;95;111;111
111;119;110;96
84;76;80;84
92;95;64;64
76;111;111;102
84;68;64;64
64;68;68;68
68;68;64;68
84;95;87;71
60;64;95;95
103;95;68;64
80;111;111;111
111;87;93;68
76;88;100;84
68;64;79;95
111;110;111;110
100;104;124;126
111;72;80;96
119;111;103;119
110;108;104;124
124;111;84;80
96;96;92;102
111;92;84;80
80;88;80;72
64;64;52;52
52;44;48;70
78;92;79;46
52;64;64;64
64;56;64;70
72;84;78;64
48;76;84;94
95;44;64;72
92;95;79;95
95;70;87;95
64;88;111;95
64;76;110;87
70;68;96;111
103;108;84;68
64;64;64;72
84;95;102;103
111;108;88;88
88;88;84;76
64;64;64;52
64;68;84;95
95;78;60;52
68;64;72;72
84;95;95;71
56;64;68;84
92;103;95;95
110;108;104;118
119;111;87;76
72;92;119;111
78;72;68;72
92;92;96;94
88;92;111;111
95;64;80;92
108;95;95;87
84;64;72;88
108;87;64;68
88;111;79;64
84;102;103;92
92;94;100;100
92;80;108;111
100;92;108;111
92;64;76;80
88;111;111;111
111;119;119;116
104;96;92;92
92;111;111;111
116;108;104;100
96;108;88;68
68;64;64;64
84;95;103;110
108;84;64;64
64;72;76;84
84;80;64;52
48;48;64;72
78;68;70;76
68;92;95;95
95;103;94;94
84;88;94;96
84;92;76;84
92;108;110;111
111;104;80;64
68;84;111;79
64;80;92;100
80;64;68;80
92;76;68;64
64;52;48;64
84;68;68;64
64;70;95;95
95;71;52;64
72;86;79;48
64;80;92;92
76;68;68;84
86;95;80;72
84;95;92;72
68;64;60;87
84;76;64;64
64;84;95;95
95;94;76;68
68;86;95;95
103;87;109;111
111;111;111;119
127;127;127;126
124;108;88;84
96;96;118;111
78;76;108;118
118;127;111;95
76;80;96;108
119;111;119;127
116;104;116;125
112;100;100;100
100;111;111;104
100;92;92;96
100;88;80;84
84;88;92;88
76;88;92;95
95;92;100;100
111;110;111;111
111;79;72;84
88;104;111;111
110;84;68;64
68;84;92;80
72;76;95;102
95;76;64;64
76;84;88;86
72;64;48;48
68;87;87;95
95;102;102;111
111;111;95;68
76;84;102;111
111;119;111;68
92;111;110;110
96;84;76;64
64;64;68;84
95;78;64;48
76;95;95;52
68;80;95;79
64;79;95;94
68;68;86;111
78;64;80;100
103;79;56;72
92;95;100;94
76;64;68;72
72;80;86;80
80;84;84;76
76;95;95;95
103;84;76;84
84;72;103;95
103;95;103;87
72;72;80;80
76;84;92;92
84;72;72;72
76;95;95;103
111;95;95;79
64;76;110;111
95;111;119;118
104;108;104;100
88;88;102;108
108;111;70;72
84;92;92;96
102;95;103;111
108;104;100;119
119;72;76;88
84;92;108;102
102;111;111;119
119;68;88;88
88;111;111;111
111;76;80;96
118;111;96;92
72;94;92;68
71;95;111;111
74;68;92;100
88;92;84;88
92;111;77;64
76;100;110;95
68;72;92;88
92;96;103;80
72;111;77;64
72;111;110;102
84;64;64;64
72;92;88;88
94;109;103;100
84;88;108;100
100;76;64;68
64;68;84;95
109;95;87;79
64;92;111;68
64;80;110;109
84;84;80;92
94;111;95;74
64;72;111;103
95;68;64;68
96;108;94;84
92;111;108;100
84;80;102;110
100;96;108;106
100;100;100;92
96;108;100;96
92;72;64;72
84;92;103;109
100;76;68;68
84;103;103;94
92;94;110;95
64;92;103;102
88;76;84;92
86;84;76;92
103;79;87;94
68;64;64;64
92;109;111;111
111;103;111;126
111;88;108;127
127;92;76;84
100;111;111;64
92;118;119;119
95;109;84;78
72;72;68;72
100;111;111;92
72;76;87;95
95;78;68;80
76;84;102;111
111;95;79;64
84;92;100;84
68;64;64;72
95;71;52;64
68;84;95;95
95;84;84;103
110;109;111;111
108;100;92;76
72;72;64;76
92;92;76;76
88;87;87;95
95;111;108;102
84;84;84;76
76;68;68;92
103;95;79;64
92;84;68;64
64;52;48;52
64;92;87;95
88;92;92;103
95;80;84;92
103;95;78;68
64;100;103;88
96;102;92;84
96;111;103;110
111;109;104;80
88;119;111;111
84;72;96;96
100;108;100;88
84;102;95;64
64;64;64;76
95;95;95;71
64;84;94;103
108;95;79;71
64;64;64;88
92;92;100;103
111;103;79;64
80;111;70;64
72;110;103;95
76;68;84;108
111;76;64;72
100;95;95;79
72;88;102;111
111;88;76;80
84;103;108;108
111;79;64;72
88;108;108;111
94;68;80;100
111;64;84;110
110;111;92;72
64;64;64;72
94;79;64;72
92;95;103;103
110;111;111;111
95;72;68;80
92;111;95;94
84;68;68;104
110;111;119;111
87;76;96;111
119;119;96;80
72;84;100;100
92;106;110;110
100;88;80;88
108;108;100;94
110;95;87;87
70;84;108;111
72;76;64;96
111;79;92;95
95;72;100;111
110;111;95;95
94;78;76;68
80;111;111;111
119;111;92;72
96;124;124;124
116;127;127;127
127;109;100;80
96;100;100;104
108;111;68;88
108;87;64;76
96;111;95;68
72;102;110;92
80;76;84;108
95;64;72;84
94;84;64;56
52;72;95;62
52;72;95;95
76;64;52;48
64;76;84;95
44;64;78;78
86;76;52;44
48;48;52;64
64;68;68;84
93;79;44;48
68;95;79;52
64;95;95;95
79;78;95;100
88;80;76;72
76;84;84;95
63;64;68;94
95;54;72;95
103;103;108;111
111;111;119;125
112;124;108;96
110;119;119;95
88;112;116;124
116;96;84;96
100;111;111;111
126;111;84;80
96;100;92;100
102;119;108;96
96;111;111;111
111;72;88;102
125;64;80;96
108;111;102;96
100;108;108;119
119;111;111;95
72;96;108;111
119;119;116;104
96;96;84;80
76;92;108;111
111;79;79;95
102;80;76;80
88;103;102;92
88;76;68;72
76;84;84;76
84;60;40;64
87;86;78;94
95;48;76;94
95;95;79;52
80;109;111;87
78;76;64;64
80;111;110;111
111;79;68;72
76;108;95;95
111;110;84;88
96;96;92;111
110;110;100;84
84;88;92;100
108;111;103;111
111;87;72;76
88;88;84;84
92;103;103;92
72;64;56;64
103;79;56;52
64;64;64;76
92;92;64;64
52;56;64;84
95;44;64;80
95;71;44;64
95;87;95;95
95;111;94;100
111;111;119;119
124;111;96;80
68;84;72;76
80;80;76;68
68;64;64;52
64;76;86;92
84;64;48;48
64;52;44;36
64;64;64;64
64;87;79;79
71;54;48;68
76;78;68;76
84;95;88;76
68;64;68;68
64;64;78;78
86;95;87;95
79;64;94;111
111;64;68;72
92;102;111;95
95;111;88;72
72;92;111;110
108;88;84;84
92;94;84;76
94;108;111;95
95;64;88;111
74;68;84;100
96;111;111;111
119;110;88;76
88;108;104;102
94;92;84;100
100;96;80;76
76;76;72;84
100;95;92;68
64;52;64;72
95;95;95;100
94;96;84;80
76;72;64;64
84;95;95;95
79;52;64;64
94;95;54;64
88;84;84;76
68;76;95;92
72;72;84;84
92;94;80;64
68;64;76;72
76;64;64;64
64;64;52;40
44;48;44;64
76;79;71;79
87;95;95;103
96;111;95;70
64;96;111;108
100;80;80;84
88;88;94;103
100;111;87;87
87;64;84;108
111;111;95;79
68;84;76;64
68;84;80;88
111;70;68;64
56;64;94;95
95;79;78;64
72;96;76;76
72;72;76;72
64;64;72;95
95;44;72;94
95;54;52;72
95;79;69;48
80;95;95;109
111;71;68;96
95;68;92;111
64;72;92;80
64;64;64;76
94;95;95;95
76;64;72;84
92;111;79;64
80;88;96;108
95;64;64;64
64;64;60;56
64;64;86;95
84;92;92;95
111;71;64;68
92;100;94;92
92;111;111;111
110;100;88;84
92;102;96;100
92;92;80;68
76;76;68;64
68;95;95;95
92;84;80;86
86;80;64;68
76;86;94;95
103;95;103;84
68;64;56;64
84;77;52;80
103;87;78;68
68;109;103;88
92;100;103;92
80;76;111;95
103;108;84;64
64;72;88;100
111;87;64;64
92;68;64;92
106;95;71;64
72;80;84;84
80;92;95;79
76;52;68;80
103;95;95;95
71;72;102;109
111;95;64;68
76;88;92;92
80;92;92;92
92;80;88;111
79;64;84;102
110;95;111;119
111;104;108;118
118;108;96;96
118;111;68;96
127;64;72;72
92;104;100;100
102;100;96;80
68;64;72;94
103;77;64;64
94;95;79;76
79;95;110;111
96;84;72;72
92;95;103;92
80;76;72;72
94;71;52;68
94;95;95;103
108;87;79;64
64;80;92;108
111;95;95;111
119;126;119;127
127;80;88;108
100;80;68;68
96;111;111;110
96;92;84;92
108;111;68;72
76;84;94;106
96;111;111;111
111;119;119;110
96;96;96;100
96;88;84;80
104;87;64;64
88;111;93;95
79;64;88;111
64;84;84;92
92;94;92;84
95;84;72;86
100;95;60;68
80;80;72;76
76;95;78;68
72;95;95;88
76;64;52;64
72;68;64;64
52;68;64;64
64;76;64;44
48;78;76;76
78;95;71;44
68;95;78;79
48;76;79;52
76;95;76;68
84;95;95;103
102;84;64;79
103;94;88;68
68;92;84;72
68;92;95;95
88;88;92;76
68;76;95;63
48;76;92;95
95;72;64;79
95;103;102;88
80;76;72;72
76;95;102;109
103;95;68;72
108;95;70;64
64;84;92;84
64;64;64;48
64;95;63;48
76;87;48;48
48;64;88;95
71;52;48;64
88;87;63;48
76;64;48;44
64;68;64;48
64;78;68;64
64;56;44;44
56;79;79;71
63;71;87;68
52;64;76;88
88;88;78;84
86;95;76;52
64;68;80;87
68;76;76;68
64;78;94;95
95;76;64;48
48;52;64;84
78;92;76;72
84;95;79;95
92;80;64;64
68;76;92;86
72;64;64;64
95;95;80;68
76;95;95;95
111;95;95;79
68;64;76;96
110;95;95;64
76;84;68;68
92;95;95;110
111;104;88;84
80;102;108;92
84;100;94;106
111;111;95;68
80;80;68;64
80;111;87;64
72;84;80;92
108;95;64;76
92;92;88;108
110;100;72;64
64;94;102;108
103;108;111;100
88;110;119;111
111;100;76;68
68;64;88;95
102;100;80;76
84;102;92;84
84;72;64;68
72;84;80;68
64;68;64;68
64;68;56;48
64;79;87;93
80;95;95;95
80;80;76;86
88;87;79;76
64;64;76;103
87;76;64;64
92;108;95;68
64;100;109;108
104;96;88;110
111;111;108;96
84;84;111;111
87;95;111;92
80;92;96;84
68;68;64;64
64;68;86;78
72;68;68;84
92;95;79;69
64;76;64;64
64;95;63;52
52;95;95;95
92;111;76;64
72;108;111;95
110;111;103;95
86;80;110;119
124;119;84;76
108;119;108;92
96;111;104;108
100;100;100;100
84;80;80;88
84;100;95;92
92;108;111;95
87;70;64;80
92;110;111;111
111;111;111;127
127;127;127;127
92;84;96;116
127;112;96;88
100;108;108;92
88;119;111;111
111;111;92;80
76;72;76;92
111;108;80;68
84;111;64;64
84;80;76;64
68;76;86;95
95;79;64;84
107;110;111;108
88;80;80;92
84;100;108;100
84;64;71;60
64;72;72;64
64;84;84;92
92;95;95;95
111;93;64;64
80;103;88;80
80;84;84;80
72;80;95;94
76;95;109;109
96;80;64;64
68;80;64;48
64;95;63;48
68;64;64;64
64;68;78;72
84;95;95;94
80;92;103;95
100;84;64;56
64;64;52;48
68;95;86;86
84;88;86;72
64;68;95;87
87;95;103;106
104;95;95;111
119;119;116;100
84;84;104;108
111;111;92;68
92;102;88;76
72;92;94;88
72;68;68;86
92;94;108;79
64;72;76;100
111;95;103;110
102;96;88;92
111;111;95;76
68;64;92;111
95;72;64;64
64;96;96;92
92;92;76;64
84;95;103;100
84;76;76;80
86;76;64;68
95;95;103;110
111;111;95;95
111;111;100;76
72;78;79;95
111;95;79;68
100;111;111;119
104;96;96;108
104;92;80;84
84;88;80;76
80;87;64;52
68;84;95;95
71;64;88;108
95;103;76;64
76;111;79;70
64;56;68;94
108;95;84;72
64;72;72;72
68;92;95;95
95;92;92;110
111;111;111;111
111;102;88;92
100;111;104;100
92;108;111;108
108;96;84;92
111;111;76;72
100;111;111;79
64;80;80;76
102;95;87;78
64;64;76;84
84;92;76;76
92;95;52;64
80;92;76;68
72;76;68;70
78;78;92;94
76;64;52;64
95;87;56;48
76;95;95;92
80;76;68;68
72;84;68;48
44;68;64;68
68;68;64;56
40;48;64;52
48;64;52;48
56;79;63;79
63;63;44;64
68;76;84;78
95;95;95;92
84;88;92;92
102;95;93;110
108;111;104;102
100;100;104;104
100;111;111;95
78;76;87;95
111;110;111;119
96;80;76;72
84;88;84;92
84;94;103;111
103;103;111;119
100;76;86;111
111;119;100;92
80;68;68;64
72;102;92;76
76;84;88;95
103;95;72;64
72;94;103;108
111;111;95;79
79;64;76;76
72;76;76;68
72;86;92;84
94;103;95;95
95;95;95;78
68;108;93;64
72;92;92;102
92;76;64;68
56;64;76;76
68;92;86;76
64;52;48;64
95;95;63;52
64;68;95;95
95;94;72;64
52;68;76;72
64;64;64;68
72;94;78;64
64;64;48;48
72;87;76;76
68;48;46;40
48;72;76;64
64;68;87;93
94;86;72;64
64;95;95;95
95;102;84;64
64;52;68;92
95;95;103;108
102;111;93;93
95;111;108;80
72;80;80;92
108;95;93;76
74;64;80;110
95;64;96;111
111;111;111;111
100;119;119;116
104;100;80;68
64;74;73;64
84;92;68;64
56;79;95;80
72;84;84;92
95;84;72;64
68;72;64;64
76;94;95;79
79;79;56;64
72;84;72;84
92;86;88;76
64;64;64;86
79;44;68;86
84;64;52;64
84;95;52;48
68;84;76;64
64;68;95;71
44;52;76;95
79;79;60;64
84;103;103;103
92;103;92;92
106;111;95;95
78;64;76;68
72;64;52;52
48;68;72;78
88;95;95;70
64;68;68;84
88;95;95;102
95;84;64;64
84;110;79;60
64;102;102;103
111;87;87;76
68;96;84;68
64;52;64;80
95;86;68;64
72;72;68;84
95;95;80;64
56;64;84;95
95;111;79;95
95;95;64;76
88;96;110;111
111;111;110;80
78;68;64;76
92;95;87;70
64;84;92;92
94;96;100;84
72;76;68;86
95;79;56;64
76;72;76;84
84;95;95;95
68;64;84;95
111;95;111;111
111;111;92;80
84;88;100;111
111;100;72;64
64;76;84;80
80;102;111;111
111;111;87;72
72;96;100;96
92;110;111;92
76;68;84;102
111;76;64;80
84;108;95;87
64;64;64;76
110;76;64;64
64;64;64;64
68;92;95;92
84;78;80;80
88;103;95;79
64;64;64;87
79;64;68;84
103;87;60;64
68;94;86;80
84;102;95;95
64;64;76;92
92;111;103;111
111;68;84;84
92;84;68;64
64;64;64;68
84;95;95;95
103;103;111;95
79;64;72;88
92;76;72;68
76;80;72;68
78;95;87;71
56;52;64;64
48;64;48;48
52;56;52;68
64;44;32;36
68;87;63;71
78;87;95;95
111;71;64;84
102;102;94;100
96;108;110;108
111;96;84;80
92;111;108;92
80;84;88;111
79;64;68;72
80;92;94;94
100;80;64;52
52;68;76;95
79;64;72;80
84;84;95;79
60;54;52;76
86;92;94;84
72;68;76;84
72;64;48;52
68;64;52;52
52;64;52;48
52;48;40;40
36;56;60;79
63;32;40;52
70;72;64;56
52;64;64;79
79;63;55;40
40;36;44;44
56;79;79;52
40;48;48;64
68;87;87;95
95;94;95;88
84;103;103;94
88;102;94;76
64;64;64;64
72;80;95;95
71;64;64;68
103;48;68;84
84;64;71;76
52;52;60;79
95;79;60;52
64;72;92;95
71;64;64;76
84;68;60;93
80;64;79;84
64;68;92;95
79;79;71;87
95;95;95;95
76;76;87;111
119;116;116;124
127;111;76;84
126;79;80;84
96;110;104;104
92;88;106;100
88;72;76;88
84;72;68;68
84;95;60;52
64;84;95;95
79;95;95;95
79;64;80;96
111;56;64;72
103;103;100;100
92;72;64;64
72;68;92;95
94;92;94;84
68;72;72;84
94;76;64;64
72;88;84;76
76;76;84;80
84;95;95;93
95;110;96;100
96;88;80;84
100;110;111;95
68;72;92;100
96;100;92;96
102;111;111;111
110;92;80;84
102;100;100;100
100;76;64;64
64;64;56;52
68;95;95;76
52;64;64;68
72;84;80;64
64;68;72;64
64;79;76;92
87;68;64;76
87;95;95;95
103;84;72;72
102;71;52;56
64;80;95;63
64;103;79;87
95;95;110;96
80;76;68;76
76;95;108;103
92;68;64;68
79;87;79;87
76;64;76;103
111;95;111;111
119;119;87;72
92;111;104;88
80;92;76;80
76;84;100;95
87;76;64;80
111;95;64;72
100;95;64;64
80;80;72;92
92;76;68;84
95;88;80;76
72;103;77;69
60;60;52;52
52;52;48;72
87;79;44;64
84;95;60;48
72;84;94;95
94;68;56;54
52;68;76;68
84;95;52;64
86;95;95;95
88;84;68;64
92;79;87;92
68;64;95;72
76;78;84;72
78;86;78;76
76;86;76;78
84;76;78;84
78;78;76;84
76;79;76;80
87;72;76;86
72;78;86;76
76;76;78;72
68;84;76;72
79;78;72;72
78;78;70;76
78;79;72;70
76;79;70;72
76;76;72;72
72;79;70;72
84;76;76;72
79;68;76;78
68;79;70;68
78;78;72;72
76;78;72;70
76;86;64;70
92;64;93;80
64;60;54;48
68;95;95;78
76;60;64;72
84;95;94;92
84;92;84;68
72;80;94;88
88;95;109;103
110;111;87;64
76;96;96;92
84;84;84;100
95;64;68;56
64;68;84;95
95;76;64;68
80;88;103;95
56;68;94;103
108;108;100;88
88;100;108;111
100;111;95;95
111;94;72;72
80;96;92;92
88;111;76;64
84;110;87;64
72;80;76;80
100;103;84;64
64;76;72;76
80;76;64;48
62;44;56;68
68;68;64;56
64;95;40;52
76;79;72;86
76;72;52;52
84;79;71;87
95;95;92;84
84;103;103;95
92;88;76;80
80;95;103;103
100;92;96;103
110;111;102;88
84;111;111;95
95;70;68;92
111;95;79;79
95;111;110;88
76;68;64;68
84;108;111;111
111;79;68;68
68;76;76;80
95;92;84;86
84;92;95;94
84;68;56;48
64;76;84;84
84;76;64;52
64;68;64;52
64;64;48;52
64;87;79;44
52;68;86;87
95;95;92;72
64;68;72;68
72;84;76;72
95;63;60;48
64;68;95;95
95;95;56;64
94;102;92;84
88;102;78;64
84;103;102;92
76;111;95;87
64;68;100;100
76;96;111;95
70;72;92;111
95;72;68;88
92;106;100;84
92;92;100;84
92;111;74;64
102;111;95;111
104;100;110;111
76;68;68;70
68;64;68;76
76;106;87;87
87;95;70;64
64;88;100;84
72;80;84;100
95;56;64;72
76;68;68;92
95;94;84;94
95;56;64;76
92;95;95;95
95;79;64;72
108;95;64;80
92;109;110;111
111;108;88;80
72;68;76;92
68;64;52;48
64;64;76;78
95;95;95;95
84;72;76;84
84;72;76;88
95;95;84;68
68;80;95;95
103;100;94;100
84;68;64;77
64;52;64;84
95;95;52;68
72;68;68;64
64;76;92;95
95;95;79;95
79;64;92;103
95;64;64;84
111;64;64;80
80;64;72;94
95;103;68;56
68;80;88;95
103;111;79;64
80;100;103;100
84;80;80;96
108;95;95;95
95;68;92;100
96;80;68;64
100;108;68;64
80;88;68;64
64;80;95;63
52;72;79;48
64;95;95;95
92;72;68;72
80;80;95;95
95;111;111;87
64;111;95;68
68;68;68;80
92;95;52;76
103;103;100;92
102;92;94;96
100;111;95;111
119;92;76;68
100;111;72;76
68;68;64;64
68;76;95;103
94;80;72;76
88;92;84;80
84;95;95;103
102;108;96;84
72;68;84;102
111;95;95;111
111;110;104;104
96;117;119;119
94;84;100;111
119;119;111;119
127;84;80;96
100;96;118;111
111;111;124;108
88;84;80;80
96;92;76;72
84;109;103;92
88;80;76;84
80;80;64;52
48;80;84;95
95;48;64;64
68;84;95;95
76;76;76;72
64;64;68;78
86;95;95;95
102;96;109;95
111;96;80;84
111;64;68;72
84;84;103;103
103;92;108;111
111;108;84;68
64;84;110;95
68;72;96;111
111;94;95;95
95;111;111;111
111;95;84;76
88;110;116;108
92;96;100;92
84;68;64;64
64;68;72;68
64;80;95;79
48;64;64;64
64;52;79;87
87;48;48;52
94;95;79;95
95;108;79;64
72;111;56;72
94;103;100;100
108;111;111;111
100;102;100;84
84;111;111;110
92;84;72;76
100;111;87;64
72;111;79;64
88;109;100;92
94;84;68;64
76;80;76;76
72;68;64;78
72;86;76;52
44;48;48;48
64;76;68;64
72;72;87;95
95;79;52;64
102;95;95;95
111;111;111;111
79;88;108;119
118;127;126;120
116;127;111;80
84;100;124;119
108;96;76;68
72;111;111;95
72;68;76;84
84;72;64;72
94;103;78;64
68;102;109;109
102;108;111;92
80;76;80;106
111;108;119;93
68;96;100;102
100;111;95;64
100;95;68;92
100;102;104;102
84;94;100;100
80;76;88;84
76;86;84;84
68;64;68;76
86;94;84;84
86;94;95;87
79;64;72;88
103;79;68;64
88;110;100;92
92;100;102;92
84;72;64;56
64;84;84;92
108;68;52;64
80;76;64;64
84;95;95;95
64;64;56;52
64;95;95;88
72;64;76;95
79;79;60;52
64;68;72;64
68;64;64;72
68;78;87;63
44;64;87;92
90;68;60;93
84;64;52;68
78;95;44;68
92;95;95;102
100;108;111;111
111;119;119;110
100;100;92;108
119;95;76;68
80;84;92;92
102;111;87;64
92;110;111;95
72;68;68;92
111;111;111;111
111;119;116;96
92;92;76;84
108;111;87;68
76;100;111;68
76;111;95;79
64;68;84;92
100;96;80;64
64;64;76;92
88;103;103;110
110;111;79;68
68;68;84;96
109;87;79;87
110;92;68;68
76;92;92;94
92;84;68;64
68;95;95;103
102;92;92;84
92;106;102;88
88;108;111;111
111;79;64;80
92;111;111;87
68;108;95;64
80;92;100;100
104;96;108;111
108;92;80;68
72;76;95;94
92;76;68;84
103;95;68;60
72;100;95;88
108;111;79;64
72;106;111;68
72;111;79;64
80;110;111;95
111;102;110;104
92;96;100;100
88;84;92;92
84;84;88;110
108;110;111;111
126;95;68;92
100;123;87;68
80;100;104;110
108;102;111;111
96;100;104;111
95;72;68;64
72;64;64;64
88;92;86;86
84;64;52;48
48;48;64;64
72;87;46;44
68;79;79;71
60;77;95;95
96;111;95;100
76;92;111;111
111;72;85;86
70;68;64;80
96;100;111;95
68;64;88;108
108;100;84;68
64;92;95;95
79;64;80;84
102;111;76;64
88;111;76;95
111;95;64;72
88;88;102;108
110;111;111;111
119;111;125;119
96;80;78;68
84;95;87;68
68;96;110;94
92;100;111;95
72;68;88;102
84;80;68;64
72;103;87;64
56;64;72;88
88;95;88;84
80;76;64;64
76;95;84;68
64;76;88;95
95;87;95;111
111;111;108;108
104;111;111;86
72;84;124;76
72;104;95;95
76;64;108;108
108;88;80;80
84;84;111;111
111;64;84;106
110;111;111;87
68;80;88;84
80;72;84;76
72;95;77;52
72;95;100;95
76;64;56;64
80;95;64;64
88;95;103;102
84;64;64;64
72;103;78;68
56;72;95;103
103;95;76;64
64;80;92;86
92;103;88;111
95;64;64;64
80;103;103;111
111;111;119;111
111;119;108;96
84;80;80;104
108;94;76;72
92;95;95;111
102;76;79;108
92;80;88;100
100;108;111;111
126;87;84;68
76;108;111;111
110;110;119;111
126;110;96;88
96;127;111;119
118;104;96;80
76;100;111;111
111;119;104;84
80;102;119;111
119;96;88;108
76;78;111;111
100;88;100;111
110;118;127;111
103;90;80;92
96;102;111;110
100;84;72;84
108;95;111;110
100;88;88;96
111;111;76;64
88;111;79;64
84;111;111;95
68;80;88;102
96;102;102;96
84;64;68;84
94;95;95;95
64;72;92;104
111;108;102;100
100;103;111;108
100;100;119;111
93;84;72;72
100;111;108;124
119;119;111;111
127;127;127;92
100;127;80;96
118;95;92;72
84;96;92;88
80;76;80;84
95;103;102;98
96;92;95;78
68;96;111;111
111;111;100;80
80;76;68;84
110;95;111;96
84;80;84;88
100;92;103;110
102;96;92;102
111;68;103;111
111;100;80;72
64;76;111;79
64;80;88;92
92;76;80;94
108;95;111;111
118;111;111;125
119;95;92;84
76;72;72;68
108;111;111;111
87;72;96;111
111;104;119;111
119;100;80;72
100;100;108;111
111;119;127;126
118;100;108;108
118;118;100;88
88;84;92;108
111;95;111;111
88;88;88;84
92;92;110;108
92;88;110;111
108;102;76;68
64;84;80;84
100;79;64;52
72;95;95;95
100;79;64;68
88;95;88;92
84;72;84;95
79;78;64;68
76;86;103;103
103;102;96;84
80;80;88;86
80;111;79;68
64;76;109;110
111;111;92;80
80;80;110;111
111;111;111;104
88;100;100;92
80;80;88;108
109;104;84;84
72;76;68;64
64;68;95;95
95;95;103;111
110;88;88;88
111;87;87;76
64;68;80;108
111;95;79;64
84;111;111;108
96;108;110;100
88;96;111;111
111;104;118;111
110;111;124;126
127;122;118;126
127;127;127;116
112;127;127;127
127;88;96;100
110;122;127;127
127;104;96;88
104;110;119;76
88;119;119;127
103;95;95;95
95;72;110;95
72;127;119;111
88;76;80;96
96;108;111;111
96;88;84;96
100;92;80;84
92;102;100;111
110;111;117;124
127;119;122;116
100;88;80;95
95;95;95;87
72;100;111;119
94;80;118;119
125;111;96;100
104;119;119;124
116;127;127;111
80;108;127;111
108;80;84;100
104;104;96;102
110;96;92;96
96;111;111;118
111;96;80;68
76;111;111;68
72;111;64;72
111;64;72;80
80;100;95;92
92;95;64;64
84;77;64;76
76;68;92;95
92;84;88;88
102;95;95;84
80;76;64;72
94;95;100;108
100;84;84;84
72;88;111;52
72;80;103;95
79;64;84;111
109;111;111;110
100;104;110;119
119;119;111;119
127;127;116;96
88;127;125;127
127;111;88;84
112;119;127;111
94;76;88;110
110;100;104;110
127;76;79;68
80;100;111;111
111;111;108;84
68;88;111;111
95;68;88;92
96;100;92;96
100;110;96;84
80;100;108;103
111;94;95;79
68;118;111;119
119;111;127;126
127;124;108;108
112;95;78;76
84;108;111;108
104;119;119;127
127;118;124;120
126;119;127;127
122;100;84;106
118;127;127;127
127;127;112;116
126;127;124;112
100;104;116;116
108;112;119;127
127;127;84;96
108;119;103;84
84;96;110;119
95;80;86;76
64;84;100;111
111;111;100;84
76;68;76;110
111;110;96;92
100;96;92;92
92;96;80;64
76;88;92;94
92;64;64;64
76;94;95;84
64;64;48;48
48;76;95;79
48;64;92;95
86;95;95;102
96;108;108;96
96;84;100;108
111;108;111;110
104;84;80;80
102;108;88;76
76;76;80;92
94;84;95;103
111;111;111;111
119;68;104;119
111;111;119;111
127;127;116;104
96;96;88;100
118;95;68;88
119;111;100;80
80;88;111;79
64;96;102;100
84;92;88;80
92;94;84;80
76;68;84;76
68;64;64;64
64;64;64;64
68;84;87;92
95;95;86;76
72;86;94;103
87;95;100;108
96;100;111;111
111;108;92;92
88;110;111;100
92;110;108;96
102;119;103;95
68;92;111;87
72;119;86;64
84;111;111;111
103;111;111;76
84;88;96;111
111;100;84;76
84;84;111;111
76;68;84;92
103;111;111;95
95;90;78;68
80;80;96;108
94;72;64;68
64;64;60;52
52;68;92;95
95;95;76;60
64;80;95;79
56;52;68;76
86;95;95;95
95;95;80;68
64;72;72;68
64;76;68;64
64;64;84;78
64;90;95;95
95;103;94;76
64;64;95;103
95;87;78;68
64;76;86;103
100;88;80;92
100;102;76;68
95;95;76;64
72;95;84;80
68;64;68;68
72;84;92;94
84;95;95;60
64;72;111;79
52;84;109;103
110;64;92;111
111;64;88;108
111;111;104;110
119;103;84;68
80;100;119;111
95;78;68;88
118;95;95;64
88;92;100;111
111;111;104;96
88;84;84;111
79;79;95;95
64;88;111;111
108;108;92;88
92;100;111;111
111;111;127;119
126;108;92;80
76;68;64;68
80;111;95;79
79;87;111;108
84;72;76;88
100;111;96;88
92;92;92;103
111;64;64;76
80;108;111;111
96;84;80;76
76;76;86;92
103;79;64;56
64;80;103;95
78;79;95;108
84;64;70;79
95;109;96;92
92;88;88;94
111;64;102;95
64;100;111;111
111;104;88;84
88;108;111;111
104;104;84;80
84;92;111;111
111;110;111;127
127;127;126;100
84;76;96;110
118;116;102;96
100;119;125;124
116;100;100;110
116;125;124;118
124;118;112;108
126;111;95;76
104;111;94;72
96;119;126;126
120;104;96;110
127;87;72;92
100;96;84;80
88;111;92;84
108;111;111;111
96;96;111;100
88;100;111;111
111;79;79;68
68;96;110;111
110;104;76;68
80;84;94;92
92;103;84;76
72;72;68;92
95;92;84;76
68;78;95;95
95;68;64;64
72;72;76;72
72;92;94;95
92;84;68;68
76;78;76;95
79;52;48;52
64;92;95;79
52;64;84;95
103;71;56;64
92;95;109;103
79;103;80;72
79;93;102;92
92;95;84;76
72;80;102;79
56;52;84;95
95;95;79;64
64;72;102;103
111;100;72;64
72;94;95;92
84;92;86;68
64;72;94;92
80;72;68;64
84;95;95;95
95;111;95;76
68;76;100;111
64;96;95;71
64;72;80;108
111;64;84;111
111;111;110;100
108;92;80;80
100;95;95;87
68;80;108;100
110;111;108;96
96;96;92;88
111;64;92;96
96;76;68;72
94;95;103;95
76;72;84;106
100;100;92;76
76;84;84;92
94;108;92;100
111;95;87;79
76;76;92;110
111;111;111;111
119;111;95;76
84;100;96;84
84;111;111;111
108;110;111;119
119;118;96;92
92;96;92;100
80;64;64;79
79;64;64;64
80;103;94;80
80;76;64;52
64;86;95;95
78;71;79;70
64;68;100;95
95;79;60;76
92;80;64;64
76;95;95;103
92;94;84;94
102;84;64;52
80;95;76;64
64;92;95;86
68;64;64;64
76;72;64;64
68;68;52;48
64;64;68;87
79;86;56;52
52;64;84;95
95;95;95;111
111;111;111;116
116;119;127;127
104;88;88;96
100;84;80;80
68;76;84;109
95;95;111;104
100;96;96;92
96;108;104;108
104;88;68;64
64;79;103;111
108;88;80;80
111;87;68;92
111;111;111;111
94;68;84;111
111;111;119;119
112;116;96;80
80;88;88;84
88;111;95;64
72;92;111;103
111;109;111;125
119;100;96;108
125;110;88;76
96;100;84;80
94;95;92;95
111;111;111;96
76;93;111;92
76;111;108;92
84;102;111;111
119;96;72;68
68;88;84;76
76;68;72;76
92;95;88;72
72;84;92;94
88;84;72;64
72;76;76;90
94;95;84;72
95;92;84;94
84;103;84;68
64;64;64;72
80;94;95;103
95;56;64;76
94;95;84;76
95;86;76;78
92;95;52;64
68;68;92;95
95;95;88;76
76;76;72;88
103;71;68;52
64;103;95;103
111;64;80;111
95;64;64;72
100;95;68;71
64;79;95;103
111;110;88;92
110;119;111;95
86;68;88;111
119;68;76;84
104;95;68;64
72;76;68;72
95;95;102;102
100;108;111;111
111;68;84;100
119;95;103;103
111;124;96;80
76;68;72;88
111;95;95;76
68;92;110;111
104;111;96;88
84;100;96;84
76;72;80;92
84;84;92;106
100;88;94;110
100;88;103;95
95;71;72;100
111;111;111;118
118;100;76;76
68;64;64;72
100;111;108;92
80;68;68;68
76;95;103;95
103;76;72;84
100;69;64;100
108;100;80;64
76;103;111;103
111;111;104;88
100;111;108;96
108;92;72;76
76;92;111;111
111;84;64;64
76;64;68;76
80;94;95;102
95;100;84;68
68;80;95;95
102;102;72;64
68;84;92;95
79;87;78;95
79;72;108;95
64;111;111;111
111;95;79;76
68;88;110;111
111;108;92;88
92;111;111;95
68;100;111;119
119;111;92;76
72;111;95;86
68;76;108;111
111;118;118;84
78;95;72;64
84;108;96;84
80;80;80;76
72;80;78;84
95;84;64;52
48;84;63;44
56;64;68;84
84;68;64;64
68;64;64;68
78;63;44;76
92;95;95;94
88;68;64;68
84;80;76;76
76;68;78;95
94;95;95;84
72;64;68;88
95;95;76;64
64;95;95;95
80;76;72;88
94;84;72;68
76;95;95;95
84;84;72;84
80;95;78;68
84;72;64;52
76;95;95;48
80;92;94;92
72;72;68;72
92;86;88;78
84;95;95;95
95;79;95;95
95;87;79;68
68;72;102;110
111;64;84;100
111;95;87;87
72;64;80;84
84;84;103;108
111;111;111;102
72;80;100;111
79;76;108;95
76;76;88;92
92;72;78;95
104;108;100;92
84;84;84;108
111;111;100;72
64;76;80;80
68;64;52;52
63;46;68;84
95;48;52;76
94;77;48;72
95;95;95;95
102;95;64;64
64;84;110;95
87;64;76;72
76;86;95;108
103;111;111;111
119;111;96;84
96;119;111;118
108;84;68;64
72;84;64;64
68;64;68;68
84;95;95;95
95;94;68;95
80;84;84;88
100;111;95;95
111;111;103;79
72;68;68;88
111;111;111;111
111;76;68;72
84;100;96;92
104;95;74;64
92;111;87;64
84;72;64;64
72;76;52;70
95;95;95;110
100;88;72;68
76;76;76;76
68;80;80;76
68;84;92;76
64;92;84;84
95;52;64;78
84;95;95;95
80;64;79;95
100;84;64;68
88;95;88;94
100;111;103;88
72;68;68;76
84;84;72;86
95;87;87;66
64;111;103;95
87;64;72;104
111;111;108;108
111;119;119;111
95;78;80;96
88;100;111;111
119;95;76;96
100;119;95;79
72;80;72;72
84;100;103;100
111;111;78;64
80;92;100;100
84;72;64;72
76;68;52;44
64;68;78;84
72;64;56;64
76;64;44;71
84;95;95;95
84;95;102;95
87;68;100;88
72;64;64;64
72;76;95;87
56;52;64;68
78;95;95;88
68;68;64;64
68;84;95;63
52;52;52;68
80;95;95;95
95;79;72;86
80;72;76;84
76;94;92;103
103;103;103;96
108;111;72;68
76;68;80;110
103;64;68;80
92;103;102;84
64;84;94;84
92;92;109;103
111;111;111;110
111;111;100;88
80;100;111;95
64;84;108;111
100;80;68;64
84;111;87;78
79;64;68;95
103;80;88;100
108;96;80;64
64;64;95;95
95;103;100;80
84;80;72;68
80;92;95;95
95;103;111;111
95;95;68;76
88;88;80;88
80;76;72;80
92;95;79;64
64;72;76;78
80;80;64;64
84;79;48;72
92;84;64;64
68;80;92;92
95;84;80;88
72;84;76;64
52;52;72;78
86;80;64;72
72;72;78;93
94;78;64;64
86;86;76;76
68;64;64;68
76;68;78;78
76;68;52;52
78;86;87;95
95;72;64;68
80;79;48;68
95;52;48;64
84;63;52;72
84;80;76;84
76;88;95;95
92;84;68;68
64;64;76;92
94;95;70;52
68;94;103;103
103;111;79;68
64;64;92;84
68;84;76;76
76;68;68;64
64;68;64;84
84;76;64;72
78;84;84;76
84;80;86;92
95;54;76;95
71;68;95;94
76;76;68;76
103;62;64;76
92;95;76;64
64;52;48;44
76;87;68;48
64;48;44;64
76;72;56;44
40;56;72;72
79;72;46;79
64;48;44;48
56;87;87;79
63;48;48;64
92;95;79;60
52;52;64;64
68;95;52;52
94;63;52;64
84;92;68;52
60;44;44;52
84;87;44;64
76;78;68;64
56;84;60;40
52;86;95;95
95;95;100;94
92;92;76;92
111;76;64;72
76;64;79;95
95;95;76;68
64;100;111;111
111;119;119;119
127;127;124;100
88;96;96;100
110;92;88;96
100;111;68;64
76;76;84;108
95;64;72;100
111;79;64;80
92;102;111;111
111;95;95;95
92;118;96;72
72;64;76;100
111;95;85;68
64;84;110;111
111;72;76;100
111;64;72;92
100;92;92;100
102;92;72;64
68;95;103;87
95;102;76;64
64;92;88;92
102;111;111;111
102;88;76;64
64;64;84;92
94;102;103;110
96;111;111;111
110;100;72;64
64;64;72;88
94;102;103;100
92;76;64;64
68;88;80;64
68;64;64;72
84;88;92;95
95;79;95;95
64;84;96;94
94;68;64;64
72;95;68;54
64;64;64;48
72;86;76;68
68;64;52;52
64;86;87;95
95;95;95;95
108;84;68;76
80;68;64;72
88;95;63;48
72;95;95;108
95;95;68;68
64;64;64;68
92;86;68;64
72;76;76;68
72;95;95;95
64;72;94;102
95;80;64;64
76;95;95;95
95;100;76;102
76;95;76;94
80;68;79;102
72;64;56;52
76;103;95;95
102;103;88;80
102;111;111;111
111;79;80;104
119;111;87;76
72;68;64;76
100;108;96;88
64;64;64;72
80;76;64;64
64;64;76;86
92;94;76;64
64;87;95;92
94;102;103;111
95;84;111;111
111;111;108;96
100;119;119;116
84;80;80;76
80;80;94;68
64;64;80;76
92;84;76;84
84;92;80;64
68;92;95;87
87;68;60;64
76;95;84;72
86;79;64;80
95;79;52;52
64;72;76;95
95;79;95;103
100;111;95;72
64;76;88;96
92;84;96;110
95;64;68;92
111;70;68;88
92;100;100;76
68;84;92;95
88;94;103;94
100;96;110;111
93;76;64;96
111;79;72;102
111;71;64;72
88;103;103;95
95;87;111;96
76;72;72;70
64;68;84;84
95;95;60;64
72;94;103;94
72;76;86;94
100;84;64;71
87;111;95;68
64;88;100;102
110;111;111;108
84;68;64;84
106;95;64;84
100;95;111;110
92;80;72;84
80;64;56;52
64;80;76;72
92;55;52;52
64;68;68;64
64;68;48;48
68;87;79;79
77;48;76;95
56;48;64;78
88;95;79;60
52;64;64;72
84;92;84;72
68;68;48;64
68;68;76;78
84;64;44;44
71;87;84;78
64;56;52;48
56;40;40;56
79;78;70;78
78;95;95;95
95;103;100;92
96;111;68;76
84;80;80;76
92;95;95;80
64;76;76;86
95;87;64;52
80;95;52;52
76;95;66;52
64;68;56;52
68;68;68;84
80;92;95;95
86;80;76;84
92;95;48;64
72;72;80;78
64;68;64;72
84;95;92;76
76;80;84;92
95;71;52;64
72;95;95;95
86;84;94;108
96;68;74;103
100;88;84;68
68;64;68;68
64;64;68;84
84;76;64;52
44;40;48;84
94;79;44;48
48;44;52;60
71;60;44;64
84;95;84;64
52;64;64;84
95;44;64;76
84;68;52;48
52;52;52;48
68;79;40;40
64;84;79;94
84;64;48;48
64;64;64;56
52;64;64;68
78;55;44;68
93;63;44;40
48;44;44;55
55;40;48;64
76;63;46;44
64;76;64;44
36;44;64;79
86;76;48;40
48;70;87;87
92;95;71;48
68;64;68;76
68;84;78;80
86;95;95;79
52;94;95;95
88;84;64;64
64;64;64;68
88;63;64;68
88;92;76;64
64;64;64;84
95;95;95;78
56;64;64;68
84;88;88;92
76;68;68;76
72;76;84;86
78;68;68;72
76;95;54;48
76;95;78;95
92;84;64;52
64;64;64;68
84;95;95;95
87;95;87;64
64;80;84;94
111;64;64;80
80;102;95;95
86;64;84;92
111;111;111;95
68;84;104;102
80;80;68;64
88;95;95;95
108;111;111;111
100;88;80;80
84;80;68;84
100;79;52;64
84;103;79;71
64;64;94;95
64;68;84;86
72;64;60;48
64;78;92;95
95;102;88;102
111;74;64;80
103;95;87;78
95;87;78;64
76;102;111;79
64;80;76;80
84;95;103;108
100;96;88;102
106;111;111;95
64;80;84;102
108;111;111;92
68;68;64;68
80;102;110;95
79;64;72;92
84;111;111;76
64;88;106;108
102;96;68;64
64;88;94;84
92;95;71;74
95;92;76;64
68;76;84;84
80;95;87;64
52;52;64;72
94;95;79;71
64;64;76;76
72;103;48;48
86;54;48;64
95;48;64;76
84;48;48;72
95;79;44;64
68;95;44;52
68;84;95;95
95;95;79;78
92;95;111;111
111;111;95;72
76;84;100;111
95;111;111;96
88;92;100;92
76;68;72;88
102;100;100;84
80;95;80;72
76;103;95;87
68;71;68;87
95;68;64;56
64;80;100;109
111;79;64;76
102;95;111;95
111;95;79;68
80;84;88;92
110;79;64;72
88;95;64;64
76;108;100;94
111;111;111;111
119;76;80;102
110;118;111;118
92;80;68;68
64;64;64;72
80;84;84;86
86;84;76;64
64;68;68;64
76;87;79;95
80;64;52;64
64;48;48;64
68;94;79;44
64;78;95;62
64;102;79;52
68;94;103;95
100;110;103;95
103;111;108;100
92;108;111;109
111;119;92;87
90;84;92;68
102;111;111;111
103;111;111;111
111;119;127;127
127;143;95;76
88;116;111;88
76;80;68;68
76;111;79;95
109;111;111;104
111;119;119;111
100;116;119;125
127;103;84;96
100;96;88;96
100;111;111;110
104;126;87;72
104;95;64;76
96;108;111;111
84;70;68;92
111;64;64;76
84;111;103;95
95;111;68;68
84;111;111;79
68;108;79;64
68;80;106;100
84;100;111;111
111;119;111;100
80;72;93;111
104;100;84;92
92;104;111;111
111;111;111;95
72;80;80;80
100;79;64;76
84;80;72;80
94;88;72;64
64;78;88;92
95;95;100;103
108;102;111;64
76;108;111;76
64;92;111;111
100;100;100;100
100;92;80;76
88;111;111;111
111;119;126;124
118;116;104;100
100;124;119;111
126;122;124;124
110;127;119;95
80;100;88;76
76;96;111;111
100;111;111;119
119;119;127;119
100;96;88;96
84;68;68;64
64;64;64;70
60;72;84;103
79;87;71;64
64;111;87;70
64;64;76;102
84;72;64;64
88;95;84;68
64;68;68;78
95;87;71;58
64;92;103;95
95;95;95;111
111;119;119;125
127;95;76;84
108;111;72;72
96;119;87;68
84;100;111;111
119;119;109;86
80;108;125;119
110;110;111;116
124;111;90;72
80;80;80;72
80;102;111;94
72;64;64;68
80;95;87;56
64;88;95;92
76;64;52;64
72;76;76;95
95;95;87;65
64;76;76;72
76;94;79;48
80;95;87;79
64;80;109;95
95;93;87;79
64;84;92;102
106;111;111;96
88;84;84;76
100;70;64;72
103;110;68;64
80;100;111;111
111;111;119;119
122;116;108;100
100;127;92;72
92;127;95;78
72;76;84;84
100;111;95;111
111;125;119;119
119;119;127;118
96;84;103;119
96;96;88;92
96;92;92;80
80;102;111;111
111;111;119;111
95;111;111;111
102;80;80;88
100;103;72;68
80;88;100;102
100;95;68;64
96;110;95;64
68;88;100;102
76;64;64;64
64;64;48;44
52;64;64;78
79;79;79;79
54;64;76;92
95;79;52;68
84;86;80;76
68;68;68;84
95;56;48;64
88;95;87;60
64;88;95;71
52;76;84;95
79;79;103;100
88;92;92;80
72;76;108;87
70;64;64;64
84;102;95;95
79;64;72;88
111;87;87;87
86;111;111;111
103;103;119;108
88;96;92;92
104;117;95;84
64;68;64;84
111;79;69;64
94;111;111;111
111;93;78;76
68;64;72;92
110;96;84;92
92;111;111;103
111;68;80;84
76;84;80;103
106;111;68;64
80;108;111;79
64;100;95;64
68;80;72;68
76;103;54;64
94;79;52;52
64;72;86;84
76;76;86;86
95;95;95;94
84;76;76;95
92;80;103;103
103;100;110;111
102;100;111;111
104;111;111;87
72;88;127;95
76;84;92;72
68;84;84;106
108;111;111;111
84;72;80;88
108;100;88;84
76;68;64;72
88;95;95;95
102;76;95;84
68;95;100;72
64;88;95;64
68;88;100;111
76;68;72;80
95;94;95;80
64;95;95;64
64;64;64;76
84;80;94;86
72;64;64;68
86;79;52;48
72;95;94;95
103;103;103;95
95;110;88;80
100;111;111;111
104;108;116;111
76;80;84;111
111;119;119;87
78;84;104;88
88;108;106;100
110;95;79;70
76;68;64;64
72;84;109;95
79;95;111;110
118;119;86;72
88;119;103;72
80;92;111;111
111;95;86;79
86;72;68;72
64;80;84;84
76;68;64;52
72;87;52;64
72;84;95;44
76;92;95;80
64;68;76;86
64;68;76;84
95;95;95;103
108;111;87;64
80;102;111;79
64;64;68;79
64;64;64;92
103;111;95;76
64;92;95;76
64;68;80;92
102;102;92;72
88;111;108;108
96;84;84;76
84;95;94;92
102;95;76;64
88;109;95;76
64;76;84;95
108;100;80;76
64;72;84;95
95;103;102;100
104;111;111;111
111;110;111;111
100;96;84;84
96;111;108;96
84;92;111;79
64;68;84;94
108;95;103;84
84;111;79;68
64;64;79;95
95;111;111;96
76;64;64;68
64;84;92;103
103;103;111;111
96;88;80;76
80;108;111;104
92;111;111;100
72;76;88;84
84;80;64;52
64;80;95;79
56;52;64;72
95;78;75;79
95;103;88;68
68;95;95;56
76;102;95;64
68;84;88;80
80;76;76;86
92;84;92;94
94;103;109;111
111;111;119;111
95;95;78;68
80;102;111;111
111;116;88;72
72;92;100;102
96;102;84;80
80;94;71;64
80;102;103;111
111;108;100;111
111;118;104;96
92;88;111;103
64;108;111;78
72;111;95;68
80;108;119;87
64;100;95;68
68;111;95;64
84;111;76;76
111;111;111;119
110;96;96;100
96;119;111;111
94;92;111;111
84;76;80;80
100;110;111;118
102;104;92;84
88;88;102;111
111;92;79;102
76;95;96;76
76;111;100;88
76;80;100;95
88;92;100;95
80;88;102;110
100;108;92;88
100;111;79;68
68;64;64;72
84;92;103;111
94;87;79;68
76;100;95;95
95;95;95;95
76;68;64;72
88;108;111;95
78;72;102;108
92;68;64;72
92;108;95;95
64;80;111;95
64;80;108;111
87;111;108;80
92;95;111;108
96;111;111;110
108;119;111;111
126;116;108;124
118;100;96;96
96;108;116;127
111;95;124;108
100;118;118;112
100;100;111;119
119;126;124;124
118;127;111;84
88;100;100;88
68;80;84;84
72;72;80;80
94;92;95;94
92;76;68;68
64;64;64;68
78;72;76;84
72;68;64;52
68;87;70;64
64;78;95;63
48;64;78;95
95;79;95;92
84;108;79;64
64;64;64;68
80;94;84;80
103;79;76;93
102;76;70;64
72;108;95;95
76;68;64;76
72;72;88;95
80;68;72;94
95;94;109;111
111;110;96;80
92;100;95;78
64;92;100;108
111;64;64;80
92;108;110;111
111;100;88;84
102;100;108;111
104;96;88;84
92;111;111;79
64;80;108;100
88;80;80;76
84;68;68;72
86;84;76;95
95;95;92;84
76;92;103;95
95;109;111;68
84;111;111;92
68;76;111;111
71;64;80;100
111;64;64;72
76;76;68;80
88;95;71;52
52;64;68;72
78;68;48;40
64;87;95;63
44;64;87;52
48;64;64;68
64;72;95;95
87;95;80;64
68;76;95;95
103;100;76;64
52;64;94;95
95;108;108;111
110;104;119;119
108;96;104;100
96;96;111;118
108;88;76;80
92;84;102;111
111;72;68;84
108;78;64;80
84;111;95;111
111;111;100;76
78;64;72;84
94;94;102;111
95;95;72;64
84;106;111;95
109;108;88;80
88;111;111;111
119;88;90;110
84;80;88;100
100;92;94;84
72;72;92;95
79;68;64;64
92;109;103;92
72;80;103;109
111;64;72;88
104;92;92;100
80;103;78;64
80;80;72;84
84;76;95;95
80;64;64;64
68;68;95;95
95;76;64;64
76;80;95;71
64;86;95;103
103;103;94;76
80;100;102;111
111;64;68;68
80;84;88;84
76;72;76;88
84;68;64;64
68;76;95;77
48;68;95;95
79;95;92;68
64;72;80;80
76;64;52;52
64;78;95;95
94;95;72;64
64;64;64;72
72;76;95;95
95;110;108;111
111;108;102;116
108;88;76;88
111;95;95;95
111;104;80;68
64;92;111;108
84;84;102;111
103;109;102;88
84;92;92;76
68;76;103;103
100;106;102;94
84;96;102;72
64;64;80;94
92;72;76;76
84;76;64;64
64;68;76;76
64;64;48;40
36;52;87;79
63;44;76;92
95;79;95;60
64;88;100;110
103;95;108;92
84;68;72;80
72;76;94;102
103;92;86;88
96;95;95;87
64;80;108;111
95;64;72;80
92;100;94;80
80;88;111;111
95;72;64;80
110;111;104;111
119;110;96;88
100;100;84;68
64;88;111;79
64;76;110;111
110;96;80;68
68;94;92;92
94;76;64;60
52;94;95;56
64;64;68;84
84;92;84;88
76;64;52;44
64;76;79;48
64;76;76;68
76;76;84;76
68;64;78;64
64;68;84;68
52;56;78;93
95;95;95;95
95;80;64;60
66;60;76;66
64;80;103;103
92;72;84;94
102;95;95;95
76;84;111;111
119;118;102;96
88;100;119;111
108;84;76;76
68;80;96;111
111;110;84;64
64;80;95;56
88;103;109;108
96;94;92;102
111;95;76;64
88;111;111;95
103;119;124;125
127;110;127;112
96;88;100;118
119;72;92;104
116;84;72;68
76;108;79;76
64;64;68;84
110;95;102;76
64;84;100;94
88;92;80;68
72;80;92;95
103;87;103;110
110;92;80;80
84;80;108;95
70;64;80;98
92;80;103;95
110;103;87;68
72;84;111;111
111;104;92;96
84;84;110;111
110;92;76;95
87;70;68;64
84;100;111;111
111;68;68;88
110;108;92;84
84;88;111;111
95;64;80;100
111;111;111;104
110;100;108;119
119;124;127;127
127;110;108;104
108;127;127;127
124;118;100;84
76;76;108;111
119;118;100;100
104;108;110;119
116;100;88;92
92;92;111;108
100;76;79;103
84;68;76;94
110;102;84;64
64;64;64;68
80;80;64;64
64;64;95;95
95;84;64;60
68;52;68;84
94;80;68;68
76;68;64;68
76;68;68;68
68;56;48;68
64;60;64;76
92;84;68;48
48;68;86;78
68;52;64;76
72;48;52;64
76;87;87;78
72;52;76;72
64;84;60;76
70;68;78;64
87;68;64;64
68;64;72;79
86;92;86;72
64;64;68;92
87;44;80;95
87;48;64;94
95;94;95;80
72;76;72;76
76;72;88;86
68;64;64;64
80;95;86;84
95;92;84;76
80;80;76;76
76;68;76;87
84;95;88;92
76;64;70;60
48;68;95;95
86;64;52;64
72;80;88;95
95;84;64;52
64;84;95;79
48;68;84;95
95;52;64;76
76;64;64;80
95;48;95;95
87;87;95;109
108;88;100;111
111;96;92;96
118;92;111;111
96;96;100;100
100;95;72;64
88;80;76;76
68;72;95;95
95;72;52;64
64;68;76;68
72;72;94;95
79;64;84;95
95;95;103;111
111;111;104;102
108;111;119;126
95;72;100;119
116;96;76;95
119;111;96;84
100;100;111;68
88;88;84;96
102;84;76;76
76;64;68;84
95;78;60;52
64;76;92;103
95;52;76;84
68;64;52;64
72;78;88;95
52;68;95;62
64;86;92;84
86;84;76;64
64;64;72;76
90;71;87;95
84;68;64;64
88;79;95;95
103;94;68;64
68;92;100;111
79;64;84;84
84;95;88;94
88;68;64;76
95;71;79;95
79;56;72;84
100;103;98;88
80;64;64;86
103;95;88;76
72;68;84;95
95;66;64;76
100;103;95;103
108;103;111;111
95;70;84;110
119;119;119;110
96;84;88;92
88;92;84;84
102;94;76;64
76;88;92;92
88;72;64;72
86;78;68;64
64;64;76;84
95;95;95;94
80;68;64;68
68;68;72;86
92;88;76;64
68;64;78;80
76;64;64;84
95;95;84;84
86;68;64;80
95;71;48;64
64;84;94;80
64;64;88;95
95;76;68;68
76;95;92;88
100;94;76;76
76;72;95;95
95;95;111;111
100;84;84;84
84;72;64;84
103;87;94;68
72;92;88;76
72;68;68;68
78;72;76;95
95;48;64;95
95;95;95;79
64;76;111;111
111;76;64;80
88;92;92;92
102;94;84;72
68;76;86;86
84;68;64;68
78;78;52;55
79;80;52;63
92;68;52;56
87;68;52;44
52;64;94;95
79;71;52;64
68;64;64;78
92;95;95;95
95;88;76;64
56;62;79;95
95;95;76;64
64;64;64;64
80;95;95;95
95;64;64;80
88;84;72;80
95;95;78;79
71;64;76;80
92;95;88;76
80;95;92;76
72;68;64;64
72;92;72;68
64;68;92;95
95;95;84;80
80;76;68;64
68;72;95;63
64;64;72;76
95;95;79;52
68;111;71;56
64;88;106;79
52;84;95;78
64;68;102;95
95;70;64;76
100;100;110;108
108;100;84;84
68;78;103;102
92;88;92;88
100;94;94;88
92;88;72;64
68;76;84;92
76;64;52;52
64;78;86;72
64;64;78;87
79;44;76;84
95;95;95;95
88;84;84;94
92;72;64;95
76;64;76;95
95;79;95;110
96;80;80;64
68;72;76;88
95;95;80;68
76;80;95;103
95;52;92;103
108;80;64;68
68;60;64;84
103;103;102;92
76;64;93;94
68;79;87;64
64;80;86;100
102;76;64;64
76;86;76;84
95;95;95;95
95;64;92;111
111;84;64;64
84;103;92;68
64;72;95;95
103;93;79;64
68;68;64;64
86;84;72;76
64;52;52;47
48;84;95;94
92;84;72;72
92;79;68;77
60;68;84;92
84;88;76;80
86;68;64;64
68;64;68;76
78;56;64;64
64;64;68;84
78;68;68;64
68;70;68;76
52;44;46;36
64;87;79;71
62;48;64;94
95;48;64;92
95;95;95;88
94;103;92;92
88;84;92;111
111;86;95;78
68;68;76;111
111;94;68;64
68;87;95;111
93;68;80;104
111;111;116;119
111;80;100;118
119;119;104;84
76;68;76;92
100;92;72;64
72;84;84;88
92;80;72;68
68;64;64;64
64;64;92;95
80;64;48;52
64;92;95;79
48;64;95;95
95;56;64;100
94;79;95;111
108;84;72;84
102;95;74;64
84;100;111;79
64;80;84;84
92;92;72;64
64;68;72;76
92;95;68;48
72;87;56;52
64;76;95;95
64;64;111;79
64;64;64;84
80;103;103;100
76;72;92;92
84;72;64;76
95;52;68;103
87;95;68;87
86;64;71;87
87;68;64;80
84;76;80;76
72;68;92;76
64;95;95;95
95;95;64;64
84;76;76;68
52;44;64;68
68;68;72;68
68;64;52;52
72;64;40;36
48;36;36;44
63;79;52;40
40;48;84;87
79;44;68;95
56;48;84;95
70;52;64;64
72;94;72;64
64;64;52;56
64;86;79;76
76;72;64;64
68;87;86;84
68;52;44;40
64;95;95;95
103;95;68;64
94;95;74;64
72;68;92;103
95;87;109;111
111;119;111;119
108;108;96;100
126;95;76;72
96;119;111;119
119;111;76;80
116;95;68;88
119;111;111;116
119;127;127;127
127;127;127;127
127;95;88;108
110;108;100;92
80;68;68;76
92;92;88;95
92;84;76;64
52;64;76;92
95;95;103;102
106;111;111;95
87;68;88;100
119;79;64;80
100;102;92;84
76;68;64;72
84;79;60;52
68;95;95;60
56;64;72;76
92;84;76;76
76;90;76;68
95;44;64;84
95;95;95;84
64;64;72;95
95;52;84;111
64;64;88;95
95;71;64;84
84;68;80;92
76;84;72;64
76;84;64;64
68;95;95;94
92;100;108;111
108;88;76;109
102;88;80;84
110;79;95;111
88;76;76;76
92;76;64;60
48;68;95;95
103;95;92;68
64;64;68;84
95;95;68;52
76;76;64;56
52;64;92;95
77;52;76;92
92;95;87;95
79;64;80;92
84;76;72;80
84;88;94;103
103;80;64;64
68;52;64;68
94;95;95;108
92;72;64;68
64;72;84;80
76;94;95;56
64;80;72;68
68;64;68;68
52;64;64;72
86;95;79;70
60;52;64;72
76;76;72;64
48;44;52;64
79;70;64;64
95;79;44;48
78;87;95;94
92;95;76;64
68;79;79;52
64;68;86;88
84;64;48;44
48;44;64;84
87;40;48;64
64;64;76;68
64;52;68;84
94;94;84;76
88;80;64;64
64;64;64;52
56;64;76;92
95;90;64;54
69;60;48;48
64;78;76;64
52;68;90;95
54;64;72;76
76;76;87;84
92;92;72;52
48;48;64;64
64;70;84;94
95;79;62;64
76;84;76;76
64;48;48;44
64;64;44;48
84;63;36;56
72;78;64;52
48;48;48;40
56;79;44;36
64;93;55;36
72;92;93;95
84;64;64;64
72;95;80;64
64;48;48;64
95;54;52;52
56;64;76;76
64;56;40;36
64;68;52;64
78;79;79;92
72;64;68;92
92;68;52;52
68;95;95;68
79;52;68;68
92;95;68;52
84;95;54;64
88;95;72;68
72;84;68;68
64;64;64;68
76;95;92;76
72;64;48;48
64;86;68;52
52;40;44;76
94;79;77;52
48;64;72;76
64;68;68;64
64;48;40;56
64;72;52;52
52;64;68;60
56;86;87;87
71;44;64;78
80;95;87;63
52;64;76;88
88;95;95;103
103;104;104;102
96;76;76;92
100;111;103;95
87;87;68;72
92;111;68;64
80;100;96;94
102;111;111;100
84;72;95;84
64;71;64;64
76;95;92;95
111;68;64;68
92;103;110;108
111;68;72;100
111;108;92;96
84;68;64;64
72;84;68;76
84;95;95;95
95;64;84;92
102;95;64;68
92;95;68;64
64;56;64;76
80;95;95;95
88;95;110;95
64;64;80;88
94;95;56;72
94;103;110;111
111;104;100;100
96;100;88;80
64;64;72;76
95;60;72;95
95;79;64;52
72;110;71;56
64;64;64;68
68;64;48;48
64;52;40;40
48;68;78;87
79;79;95;95
92;84;64;64
68;52;52;86
95;95;95;95
76;64;87;95
103;84;76;94
72;92;79;84
79;84;87;80
76;92;68;95
72;64;64;68
64;52;56;76
80;84;64;52
64;64;64;76
92;95;94;95
103;87;52;64
72;103;95;88
84;76;68;80
80;95;95;95
95;64;64;72
88;95;64;80
100;111;95;87
76;64;68;92
84;80;80;84
84;103;95;103
84;64;87;80
68;95;111;110
102;100;108;102
104;111;111;111
94;72;108;103
76;72;92;80
72;64;64;68
92;95;71;48
80;92;92;95
84;68;64;79
87;60;60;52
64;72;88;92
92;64;52;60
63;63;48;64
92;63;44;64
95;95;92;76
68;68;56;48
68;79;40;52
76;95;60;64
95;56;64;84
95;63;64;68
92;63;64;76
92;95;79;52
76;103;94;76
64;71;95;95
95;64;68;76
76;80;84;76
76;95;94;80
64;64;76;86
92;95;71;52
76;95;95;70
64;72;76;88
92;95;103;111
79;64;76;88
84;84;76;72
72;84;80;95
79;52;64;72
84;63;64;80
92;79;56;48
76;79;52;64
92;79;62;48
76;95;58;48
68;76;76;72
64;80;76;68
76;94;87;79
70;60;64;80
95;54;64;92
94;95;92;94
92;80;84;103
103;92;72;80
103;95;52;64
76;111;56;64
95;95;79;78
64;108;95;76
64;64;92;111
103;76;70;95
103;72;64;68
76;76;80;92
95;95;80;72
72;86;68;64
68;64;64;64
64;72;64;64
64;68;68;86
94;95;95;95
102;110;95;79
95;76;64;76
84;95;94;92
84;111;95;95
64;88;110;95
64;88;102;108
108;84;80;84
106;71;64;84
110;87;64;76
80;80;72;92
100;111;95;79
87;110;108;92
88;80;72;92
110;111;111;95
95;79;68;64
84;111;102;100
110;95;64;80
84;106;111;95
79;68;80;108
111;111;118;119
92;72;84;100
111;95;79;78
64;72;88;108
111;95;64;96
111;95;111;119
110;96;76;64
92;108;111;111
110;111;92;76
76;72;84;94
100;109;111;79
64;76;84;92
100;111;110;100
96;102;92;80
76;76;76;64
64;68;68;86
95;48;52;64
68;72;78;80
92;63;64;72
92;84;84;92
95;95;92;84
76;64;64;64
80;79;48;72
84;92;88;86
84;95;95;79
64;64;76;109
95;95;64;64
76;72;72;84
86;95;62;64
94;95;87;71
72;95;110;110
92;72;79;76
64;100;102;80
64;64;64;64
76;84;76;76
84;95;79;56
64;92;92;76
64;68;92;78
72;76;68;72
76;84;76;68
68;64;44;40
48;52;68;64
44;48;40;48
78;47;44;68
70;95;46;40
72;79;79;79
52;68;92;95
95;79;79;95
95;95;87;64
76;100;108;111
111;111;119;127
127;87;76;96
108;111;119;103
80;80;80;80
84;111;111;95
76;80;88;96
88;92;80;72
68;68;68;72
68;95;95;95
103;109;106;92
108;111;95;68
72;80;80;72
76;72;68;76
92;77;48;64
84;95;44;64
84;95;95;71
64;96;79;56
64;52;64;64
64;68;64;64
80;95;95;80
64;52;48;52
64;87;78;64
52;64;68;79
95;63;60;44
64;95;95;95
102;103;100;100
84;88;80;84
84;95;64;56
64;80;76;80
94;95;92;92
76;72;68;84
95;79;48;72
76;95;95;95
76;76;92;95
95;87;64;72
88;111;95;87
64;92;94;84
92;79;64;64
76;111;52;68
84;95;56;64
88;95;95;95
111;79;64;76
100;95;64;68
96;95;64;68
103;95;87;79
87;76;87;93
79;72;64;68
88;111;79;64
64;80;96;95
110;56;68;92
111;79;64;64
72;80;84;103
92;102;111;111
111;70;64;80
111;111;78;64
72;80;100;111
103;111;111;102
84;68;76;80
84;100;95;84
84;98;94;84
76;102;95;87
87;76;74;70
64;100;95;95
110;111;111;108
96;104;96;92
92;92;88;76
64;76;84;88
95;103;103;103
102;106;108;102
100;102;108;108
92;110;111;111
111;111;103;111
90;96;100;100
100;127;111;95
78;84;88;100
104;118;111;72
80;96;88;84
96;111;111;111
86;70;84;108
119;78;72;96
111;64;76;110
95;87;64;72
84;100;108;94
80;80;84;100
103;100;92;84
80;92;94;84
84;80;68;68
84;95;84;72
64;84;92;84
76;95;90;72
84;95;95;79
79;103;100;88
88;111;79;64
76;92;110;111
95;76;68;76
104;111;111;111
100;80;64;76
88;111;87;64
76;92;111;87
78;79;64;64
64;64;68;68
71;52;64;84
92;95;95;88
84;72;72;76
84;95;95;95
76;64;64;64
72;95;79;71
64;64;76;80
95;87;48;72
102;87;70;64
68;108;95;79
76;64;64;84
92;95;92;92
88;94;80;84
103;95;87;76
68;64;64;72
76;84;68;64
64;64;92;95
95;103;79;64
64;64;56;52
64;84;76;64
56;48;44;40
52;95;52;40
64;92;95;95
93;95;103;100
92;111;87;74
64;80;72;68
72;68;52;44
48;78;84;72
86;95;94;84
72;68;52;64
86;93;76;64
52;54;44;64
86;95;95;95
95;100;111;79
64;70;79;64
76;111;95;87
64;80;100;108
92;110;111;95
64;72;84;102
111;111;87;64
84;100;108;111
111;111;64;84
100;111;111;92
92;119;111;116
116;127;127;127
124;100;95;119
126;127;127;127
127;135;108;84
76;72;72;92
108;92;80;80
106;87;68;64
80;100;95;78
76;87;95;94
95;79;64;96
111;86;64;80
100;111;111;111
111;64;100;111
95;70;72;84
100;111;102;92
80;88;88;80
92;111;64;64
64;84;80;64
64;64;76;88
84;78;64;52
56;64;48;71
87;95;95;84
94;95;88;88
76;88;103;95
84;64;87;92
68;72;80;76
64;64;64;84
95;95;56;52
64;72;95;95
92;64;87;68
78;72;87;68
95;72;87;72
79;84;64;95
95;68;92;78
76;92;72;76
72;103;103;96
84;80;94;111
79;72;84;108
108;103;111;110
102;80;68;64
80;94;111;111
102;119;111;95
90;92;68;96
119;95;95;76
72;72;84;100
111;95;76;64
72;84;76;68
68;86;95;94
84;103;95;95
64;92;111;111
110;111;100;76
80;76;68;72
94;79;52;68
92;95;64;60
52;64;80;95
95;78;79;60
64;80;92;92
92;95;110;111
108;84;84;92
100;111;111;93
84;103;108;84
80;84;84;110
111;111;111;119
126;119;86;76
84;100;102;104
118;127;68;92
119;111;84;72
76;100;111;111
95;79;68;72
84;84;80;80
92;109;87;64
64;84;103;95
108;100;100;102
111;108;102;100
92;92;100;108
100;110;119;87
64;92;92;96
88;111;95;64
80;100;103;92
84;68;66;79
103;111;111;100
96;110;110;110
102;110;96;76
80;96;102;100
104;87;64;72
100;95;64;64
64;80;100;103
103;94;80;76
68;76;84;94
102;109;111;111
111;108;111;96
76;86;109;111
118;108;92;76
92;111;102;88
80;84;92;100
102;109;95;76
64;68;68;80
88;92;95;103
100;108;106;102
92;88;100;100
84;88;92;94
92;111;87;76
64;68;64;76
92;95;79;87
103;100;72;72
80;92;95;79
64;64;84;95
95;102;94;100
110;84;68;68
92;88;80;72
72;80;80;68
64;68;90;95
95;95;92;100
100;100;111;103
84;68;64;68
52;68;92;92
92;109;95;87
64;64;64;68
64;84;95;95
103;103;110;103
84;94;110;111
111;93;72;68
76;100;111;111
95;76;68;64
84;111;95;95
111;88;68;64
64;80;88;80
64;64;52;64
68;95;95;95
95;79;95;108
96;84;64;64
64;64;52;52
72;76;86;95
95;95;109;110
92;92;80;84
86;111;95;79
68;68;64;68
72;84;109;95
103;111;111;111
118;119;119;103
86;76;80;88
110;111;119;119
118;124;126;116
104;100;100;110
104;116;100;96
108;111;119;127
111;111;127;127
127;127;127;127
126;132;127;108
88;84;76;84
92;88;88;88
108;95;111;109
100;76;106;84
92;86;88;86
80;76;111;111
95;72;72;80
88;94;88;76
84;100;95;95
106;111;111;111
111;96;100;92
80;96;111;95
86;72;72;102
111;111;111;125
95;72;84;88
111;111;119;119
95;88;96;108
100;119;119;126
111;78;76;72
100;111;119;119
111;96;72;79
103;111;92;80
84;111;111;68
80;92;102;110
111;95;95;103
95;111;111;127
127;108;92;96
104;116;118;104
84;96;119;127
111;127;127;127
127;127;127;127
116;127;124;108
104;127;127;127
118;127;127;127
127;140;119;119
124;127;102;80
96;118;109;80
100;108;110;108
116;119;95;72
88;124;103;72
84;111;119;111
111;103;111;124
112;124;103;84
80;88;92;110
110;96;76;72
92;111;111;95
64;100;111;76
72;84;84;96
111;79;64;72
92;111;79;68
64;92;111;95
95;111;92;84
84;84;92;94
100;111;111;111
111;108;84;68
64;84;100;102
94;108;111;111
111;111;103;76
72;96;119;119
111;119;127;124
116;116;120;120
118;111;80;84
96;127;76;76
100;119;118;127
111;76;72;96
125;76;72;100
119;111;95;95
111;124;118;104
84;76;72;80
92;111;111;95
76;76;102;110
84;80;80;92
96;106;111;106
84;84;84;103
111;111;95;79
68;84;84;84
84;94;100;100
88;92;88;76
64;64;72;103
79;60;52;72
95;95;87;79
64;64;76;76
68;95;95;95
79;95;95;87
64;80;100;95
72;64;68;102
111;111;87;64
84;100;96;108
111;95;111;79
72;72;64;80
92;102;111;100
80;84;102;111
95;64;68;84
84;111;111;111
111;111;116;108
96;100;92;92
110;95;72;64
92;111;111;111
111;111;100;76
68;64;68;76
84;111;77;64
64;88;95;84
102;95;92;94
102;110;111;104
92;84;84;88
92;100;80;76
80;103;87;68
64;64;64;64
64;95;95;78
52;72;100;95
68;72;110;78
64;88;111;92
76;64;76;92
100;111;111;111
95;68;88;108
111;118;119;72
92;119;111;111
111;126;116;108
100;104;110;127
111;127;127;108
100;96;111;96
84;110;116;119
111;92;72;68
64;68;64;76
84;95;95;87
87;103;111;96
80;104;95;64
88;111;78;68
76;110;79;64
100;111;79;64
106;111;111;111
119;79;68;72
68;80;106;111
111;111;111;119
104;100;118;108
104;104;92;84
88;80;76;84
106;106;111;95
94;76;108;111
102;88;84;76
88;94;79;64
88;103;110;111
111;111;110;96
76;84;92;110
94;88;108;110
111;100;96;104
110;108;111;111
103;95;111;111
76;88;111;119
103;111;124;104
88;92;100;119
100;119;119;111
95;88;127;95
95;94;76;84
88;111;111;111
119;119;108;110
108;126;119;119
127;127;127;103
104;112;116;104
96;92;76;68
76;111;87;64
84;110;111;95
85;80;92;111
111;111;125;126
108;84;84;80
84;80;68;64
68;95;79;64
72;102;95;70
68;108;95;64
72;102;103;108
110;111;111;111
108;100;104;111
108;110;119;127
119;126;127;127
106;88;80;80
96;126;111;95
80;72;88;104
104;100;100;92
84;88;108;111
111;95;76;72
84;84;102;111
102;96;88;88
84;92;111;111
110;108;108;88
84;96;111;111
111;110;88;76
92;84;95;79
70;68;64;84
108;106;111;111
110;92;80;68
84;108;111;87
68;68;64;64
80;100;95;103
103;92;84;72
68;92;95;68
56;64;76;84
95;84;84;86
94;111;110;108
92;111;111;111
111;102;100;100
110;119;111;119
111;111;100;88
88;100;92;76
80;111;95;68
68;111;111;95
76;64;72;96
111;64;64;64
84;92;88;68
76;95;95;95
94;94;94;106
104;88;84;84
94;103;87;87
95;108;92;80
84;100;111;110
88;84;104;111
87;64;76;88
103;95;76;87
70;68;64;64
88;106;95;68
68;80;84;76
84;103;103;92
80;111;79;64
68;92;111;64
72;111;79;68
92;100;111;111
111;72;72;96
111;95;95;68
72;100;111;104
111;85;79;76
64;88;110;111
119;95;119;100
84;100;119;119
118;96;104;111
100;92;88;92
108;111;119;111
103;92;86;87
76;68;68;64
76;92;100;111
95;95;111;111
96;84;88;84
92;79;68;68
64;64;76;102
109;102;92;84
84;110;111;111
119;111;119;111
96;96;102;102
96;80;64;68
80;92;92;100
110;79;64;84
96;102;106;102
88;80;94;108
111;111;111;95
68;100;111;111
111;96;78;111
118;116;111;87
72;110;125;111
87;96;116;124
100;96;84;76
96;92;119;79
64;92;111;95
79;68;64;64
84;100;103;88
76;68;76;94
84;80;84;92
95;94;95;95
79;74;64;72
94;102;100;84
80;94;95;106
111;87;111;110
84;88;110;102
88;80;96;111
111;108;88;76
80;88;110;111
111;119;119;111
95;72;100;119
95;80;92;102
119;118;119;124
110;100;80;68
80;92;102;100
80;80;84;64
72;95;71;64
72;102;100;84
72;92;103;71
64;68;84;100
110;111;111;111
102;84;80;80
88;111;111;87
72;119;111;95
68;96;111;64
100;111;111;108
100;116;119;119
111;126;116;96
84;100;111;125
118;104;88;76
64;102;111;76
72;88;102;95
64;84;111;79
64;88;96;80
64;64;64;52
48;64;64;64
76;92;95;95
94;80;76;72
76;80;95;95
79;71;79;87
95;102;92;92
76;88;111;79
64;94;95;68
64;64;64;72
64;76;95;95
87;103;80;68
68;88;103;95
71;64;76;80
80;84;84;76
72;72;76;84
94;95;92;92
84;88;108;108
100;108;100;102
92;100;111;111
88;80;84;92
102;96;88;88
76;64;64;76
68;64;64;76
95;48;64;64
64;48;44;44
64;79;87;87
87;63;48;64
84;63;71;71
52;48;68;68
76;79;79;87
79;79;79;87
78;64;84;111
95;103;104;80
84;96;110;111
111;88;68;64
72;84;95;95
79;87;64;64
72;84;95;56
76;92;103;109
95;64;100;106
111;108;104;102
104;111;111;108
96;102;119;125
111;76;76;68
96;111;76;68
72;84;108;104
96;100;102;96
92;102;111;92
68;79;95;111
78;92;119;111
79;84;111;119
119;111;120;96
84;100;125;118
100;80;72;72
80;102;102;94
92;84;92;94
88;72;64;72
76;72;76;68
64;84;78;84
84;87;95;84
76;72;72;76
76;68;76;95
79;79;92;64
52;52;76;68
88;95;95;102
102;84;76;76
92;84;68;68
68;76;86;80
84;84;68;68
84;71;63;48
64;95;87;54
64;64;95;95
87;87;95;64
72;80;111;95
64;76;92;84
94;100;100;92
76;76;88;95
88;94;108;111
111;111;116;100
88;119;111;94
87;92;95;103
119;116;100;96
84;100;127;87
72;100;111;92
64;96;111;119
111;111;88;72
68;76;84;100
111;71;68;108
111;102;92;96
96;108;108;100
92;84;92;84
80;76;94;103
109;111;111;108
92;80;80;92
88;80;84;84
80;76;76;78
76;92;92;94
76;84;111;76
64;100;100;86
80;76;92;94
80;76;84;95
103;95;108;92
80;84;84;72
68;80;95;54
64;86;95;95
95;103;100;92
80;103;102;110
111;111;104;84
68;80;100;111
111;111;102;76
72;100;111;108
100;80;72;76
84;111;95;103
110;84;88;100
104;102;111;108
100;92;92;102
100;80;76;88
111;71;64;68
79;71;64;64
72;102;94;92
100;100;110;111
111;68;72;100
92;76;64;64
84;95;95;84
94;86;88;92
84;64;52;64
68;72;68;68
68;86;76;84
92;95;52;64
68;64;84;95
71;48;64;80
95;95;95;109
95;64;64;72
72;80;95;95
92;76;64;64
68;94;95;94
80;72;64;64
80;95;63;44
72;95;94;94
102;103;92;100
96;88;80;84
80;100;95;95
87;64;64;76
109;95;79;64
64;92;111;68
72;100;108;100
76;68;80;102
95;64;88;111
111;111;102;84
92;96;108;110
100;84;92;104
111;111;111;119
104;84;84;92
96;84;84;80
76;80;103;103
102;106;102;111
111;102;88;84
88;102;108;108
96;76;64;64
64;68;110;79
52;76;110;95
64;80;110;103
84;68;76;94
111;64;64;80
86;84;68;68
68;78;92;95
84;72;76;86
72;68;84;95
87;52;64;76
94;87;95;95
95;108;88;80
84;84;84;76
84;76;72;76
76;72;80;92
95;95;95;95
111;74;85;79
64;80;84;88
92;72;68;84
84;76;84;84
76;95;103;95
92;68;64;64
76;72;76;72
84;88;84;64
64;72;86;72
64;64;76;94
95;95;80;64
52;64;68;86
95;71;63;64
84;76;76;68
64;68;86;84
78;64;76;95
95;48;64;68
76;68;52;48
76;87;95;88
84;94;84;64
72;92;84;88
84;64;48;64
72;95;95;86
76;68;52;44
64;92;86;84
84;92;84;84
92;95;76;64
64;80;95;58
52;64;95;95
52;64;80;94
95;95;95;80
68;64;68;95
95;48;80;103
95;95;87;64
84;92;80;68
76;80;86;95
103;78;95;111
111;103;86;68
80;88;108;111
111;92;68;84
100;84;80;94
96;76;64;76
111;52;72;102
95;79;70;64
64;64;80;102
102;80;64;71
79;56;64;64
68;76;95;87
95;95;111;111
119;111;119;111
124;116;96;84
76;72;80;88
104;108;76;68
64;64;88;100
94;95;106;88
76;80;92;84
76;64;84;95
95;76;72;76
64;64;68;80
92;84;72;68
64;52;64;92
79;60;44;56
84;95;95;92
68;64;64;76
92;71;78;77
52;64;88;95
95;95;100;100
111;111;111;111
111;111;119;124
116;100;96;88
80;80;111;111
95;78;64;84
100;110;80;64
64;72;92;95
56;64;76;84
76;84;84;84
95;95;102;80
64;64;80;103
95;68;64;56
64;92;103;95
64;64;92;111
95;64;64;76
76;72;76;86
84;68;68;68
68;68;68;64
68;64;56;52
84;63;40;48
72;76;68;56
64;64;40;58
71;63;47;60
62;55;44;52
68;84;72;64
87;63;48;52
76;92;92;95
84;95;79;79
64;64;64;80
86;103;94;68
56;68;95;95
95;64;88;92
92;92;88;80
76;72;84;88
76;68;80;94
95;60;64;80
92;72;64;64
88;95;95;88
68;64;68;76
76;95;72;76
68;64;64;84
84;80;68;72
95;48;52;52
68;78;72;86
95;95;84;68
64;72;86;78
64;68;72;72
68;76;78;76
72;64;52;56
72;87;94;88
64;52;46;40
64;92;95;79
48;68;68;80
95;95;102;92
76;72;80;95
79;52;76;95
70;68;92;95
102;111;102;80
64;64;88;103
102;94;88;72
64;72;94;95
64;68;103;95
95;94;95;111
72;80;111;111
111;76;76;92
104;111;96;102
111;111;111;119
118;108;96;96
110;119;127;118
108;100;80;76
72;76;92;104
111;95;95;111
119;119;110;92
84;84;100;118
119;76;68;80
96;111;108;88
76;84;100;103
108;111;111;108
96;96;92;80
84;108;94;80
72;64;72;88
95;93;95;76
68;64;52;64
95;79;70;52
64;86;88;95
95;95;80;64
64;68;84;92
95;102;111;111
100;72;68;84
98;94;84;76
76;68;64;64
64;68;92;95
95;79;68;71
70;64;72;100
111;95;87;64
68;64;68;84
88;95;92;100
95;84;64;56
52;64;86;95
95;68;52;64
92;88;72;72
92;95;95;84
68;64;64;68
68;95;95;87
52;68;76;68
72;92;68;56
52;64;68;76
68;64;48;44
64;56;48;52
68;63;52;36
52;87;79;63
44;44;56;64
84;87;71;44
48;68;84;94
94;76;64;76
78;95;95;95
103;95;95;111
108;92;84;108
111;108;108;100
84;64;80;84
92;92;106;102
88;80;64;64
72;76;95;63
64;76;103;95
72;64;52;64
68;95;95;95
80;80;76;86
76;88;76;84
78;68;68;68
86;95;95;94
76;68;52;48
68;94;76;68
76;95;54;48
68;95;95;95
103;79;64;64
80;92;68;56
56;52;48;64
68;95;63;63
48;64;64;76
88;86;64;52
44;52;64;90
95;52;72;88
94;76;64;48
52;64;80;95
79;48;64;87
88;95;95;95
103;111;102;88
80;96;88;92
102;94;108;103
110;95;64;68
88;100;111;111
87;68;108;111
111;103;93;93
79;80;116;119
111;108;114;116
108;100;84;96
96;100;100;88
92;111;110;110
108;84;64;64
64;68;80;94
94;95;87;79
64;64;100;110
110;111;103;109
92;72;116;119
111;111;119;126
127;111;94;88
80;96;104;100
110;119;110;100
88;96;110;96
80;96;88;100
88;76;64;64
76;72;64;52
48;64;72;95
79;87;77;52
84;86;72;64
64;72;72;68
64;64;78;94
95;60;64;72
95;79;79;74
56;68;80;95
102;94;84;76
88;95;64;64
108;95;103;80
68;84;72;72
76;68;64;64
64;52;48;48
68;76;87;87
68;68;64;64
68;64;48;64
68;93;87;72
64;68;76;84
84;72;52;64
64;52;52;64
76;87;76;56
44;36;48;76
87;87;92;92
76;64;52;79
76;52;52;68
68;76;68;68
84;95;95;95
95;64;52;76
88;103;94;80
64;64;64;68
72;95;76;68
64;72;94;95
95;95;62;64
64;68;80;92
84;95;95;84
76;68;64;64
80;95;84;72
64;52;52;64
72;95;95;86
64;64;64;76
84;95;95;87
95;103;102;92
84;88;92;96
94;92;84;80
84;92;84;72
52;52;68;84
86;84;72;80
76;68;52;44
44;36;64;87
63;52;64;64
64;90;84;72
68;64;72;87
87;95;95;95
95;95;100;80
68;64;56;52
84;95;92;80
88;100;103;100
92;76;80;92
84;88;68;64
84;95;52;64
92;79;71;52
68;84;92;95
95;71;52;56
52;64;72;95
52;64;88;95
79;52;64;72
84;95;86;68
64;68;68;76
78;87;63;60
60;68;79;79
95;95;76;64
60;64;80;78
72;88;86;86
72;68;72;80
78;79;48;84
95;52;64;76
95;87;93;103
95;64;80;108
111;111;92;80
68;72;84;84
100;95;87;95
110;102;76;95
92;72;72;76
76;64;64;72
80;95;86;84
84;94;86;84
76;95;95;84
64;52;52;48
64;76;64;52
48;64;70;76
56;40;36;32
40;48;56;72
79;64;40;36
56;70;78;79
84;79;55;40
52;52;52;40
40;64;68;64
78;76;68;78
68;64;48;64
79;87;87;72
64;72;76;86
95;56;48;64
84;79;56;48
52;64;64;52
64;78;68;68
84;76;78;95
95;44;64;76
88;95;87;52
64;88;84;76
84;92;92;84
76;95;95;95
95;64;80;109
111;79;64;72
68;68;76;84
95;76;48;68
86;92;80;76
92;87;68;52
64;64;68;78
80;94;94;103
87;64;56;64
80;95;95;95
95;64;76;94
100;95;111;111
111;103;119;110
100;72;110;108
92;96;119;95
68;80;92;108
110;108;111;119
116;119;111;111
86;84;100;100
80;95;92;76
72;72;84;102
111;64;84;110
111;111;118;110
108;104;96;96
102;111;111;111
95;111;111;124
119;108;88;96
104;119;111;119
111;95;76;96
116;76;80;100
104;111;108;111
110;102;102;100
110;119;119;111
111;119;111;86
84;96;100;108
100;111;94;76
72;84;80;68
72;64;78;95
68;79;78;71
94;64;64;87
95;92;76;68
64;64;64;78
78;76;68;68
76;60;64;64
64;64;78;68
68;76;86;95
95;54;48;64
84;71;48;48
48;44;64;93
92;95;95;95
80;64;52;64
72;88;84;68
52;48;52;76
94;86;76;68
78;92;95;95
103;95;80;64
52;52;48;68
76;95;71;87
87;56;64;88
102;79;52;68
84;88;68;64
64;68;76;84
92;88;80;86
95;94;84;80
64;68;95;95
103;92;72;68
80;68;64;76
95;44;64;64
94;95;79;52
64;84;84;94
95;92;64;71
95;95;95;106
88;84;96;100
92;84;92;111
109;68;80;96
111;68;72;88
102;111;106;88
80;72;64;68
68;64;64;64
76;95;79;48
64;64;68;95
95;79;71;60
52;84;92;84
72;76;64;64
76;84;80;95
95;71;64;88
103;79;52;64
94;78;52;64
68;78;84;72
64;68;68;64
72;76;78;86
95;44;64;64
76;86;78;72
64;72;94;87
79;48;76;95
95;95;95;52
92;103;108;96
84;76;72;80
94;95;84;64
52;64;64;72
68;84;92;94
92;84;68;56
52;48;48;48
76;63;36;52
68;68;64;64
64;78;68;68
76;76;68;76
92;87;94;84
80;76;94;95
103;87;71;64
68;86;94;92
80;84;64;64
88;95;79;68
52;64;68;76
84;95;93;95
92;100;80;72
84;94;103;103
103;95;64;68
76;84;106;111
102;80;72;94
68;64;64;72
84;87;52;64
80;92;92;103
92;76;68;86
100;95;103;110
92;92;84;88
104;87;64;72
92;103;88;72
64;52;64;64
92;71;48;64
76;84;84;95
95;95;95;79
64;64;84;102
103;95;68;64
84;108;111;111
100;111;87;64
84;111;111;111
111;119;119;92
78;72;80;96
96;111;111;111
108;110;104;104
96;108;110;111
110;118;116;124
127;111;119;127
127;88;84;84
96;108;104;88
88;100;108;111
92;68;64;76
80;84;84;92
84;76;64;68
80;88;95;79
68;52;76;95
95;95;95;103
72;68;96;110
108;92;88;96
96;95;64;84
96;111;111;111
111;111;111;80
72;76;80;80
84;94;84;80
88;108;103;103
100;95;64;84
111;95;64;80
102;100;76;64
64;64;64;64
68;79;48;64
76;64;68;84
86;62;40;52
84;79;40;64
78;86;56;70
78;56;79;68
48;64;68;86
95;95;95;103
108;96;68;64
64;72;80;95
95;71;64;64
76;76;84;95
95;94;92;84
84;92;68;64
80;76;56;48
64;84;95;95
94;95;95;95
95;111;102;84
80;100;100;88
84;84;80;80
92;76;64;64
64;68;64;68
80;95;63;54
52;103;87;68
64;64;64;68
92;95;95;95
79;64;68;84
108;68;64;68
80;79;64;86
95;79;52;64
94;71;64;68
95;95;103;95
76;92;95;88
100;60;64;76
72;92;95;88
68;64;64;76
95;95;63;52
64;76;95;95
71;64;84;95
111;71;64;64
84;95;95;80
68;64;88;95
95;103;100;92
88;72;68;72
102;78;64;84
108;56;52;56
52;48;68;95
63;64;76;94
95;79;54;52
64;72;95;95
95;103;103;108
111;95;76;68
64;64;64;76
92;95;95;95
72;72;72;72
72;76;78;72
76;95;44;52
68;76;72;68
68;76;76;87
87;95;95;95
87;56;64;72
95;76;52;64
92;95;79;79
95;71;64;64
80;95;64;68
88;95;86;72
68;92;95;95
79;64;64;64
84;68;68;84
64;60;48;72
95;95;87;95
87;76;78;64
80;84;103;103
98;88;68;64
64;64;64;64
68;78;84;76
76;95;71;52
72;94;95;94
72;95;95;95
111;110;119;103
79;68;80;92
108;104;110;102
96;84;76;84
92;111;95;110
92;84;76;76
88;100;84;64
76;111;93;64
80;111;95;87
68;72;84;88
92;100;80;76
76;84;76;68
76;78;80;95
92;76;64;64
64;64;64;64
68;94;95;95
95;54;64;64
76;95;95;95
80;64;64;64
72;95;95;95
111;111;95;111
119;79;76;96
124;68;72;100
111;71;68;92
111;95;77;64
88;106;110;111
111;79;64;88
100;95;64;80
88;100;102;103
106;94;76;68
84;95;71;68
64;76;94;95
78;64;64;92
92;80;68;72
103;95;95;84
76;94;103;103
94;80;64;68
64;76;72;76
95;95;87;68
68;102;102;84
94;95;64;80
111;60;80;100
110;111;111;111
111;95;76;72
68;80;80;72
