## File generated by myo_cap software 
## Available from github.com/ddantas/myo_cap 
## Timestamp: 2020-01-22_14-03-57 
##  
## EMG capture settings 
##  
# sampleRate: 2000 
# channelsPerBoard: 4 
# nBoards: 1 
# bitsPerSample: 12 
# ch1;ch2;ch3;ch4
3311;-3900;-3900;3311
164;182;143;112
142;88;112;127
76;118;127;72
88;119;68;80
111;79;64;99
79;96;111;66
64;92;95;48
86;52;72;95
79;76;111;63
64;103;62;64
95;60;72;103
71;64;95;63
64;95;48;64
92;55;80;95
48;64;84;95
42;90;63;64
95;64;95;44
82;48;76;95
69;64;107;52
80;79;72;103
50;107;79;64
92;48;64;95
79;64;95;63
64;95;48;95
48;89;55;72
95;48;94;47
64;95;48;95
44;80;79;40
80;63;48;95
48;95;40;91
40;91;42;74
79;52;87;38
64;87;48;95
36;64;79;52
95;32;48;78
79;32;48;79
55;64;79;36
68;32;64;87
32;79;47;40
79;36;64;79
32;87;42;64
84;36;64;87
46;82;63;40
87;47;68;79
64;79;64;95
40;92;59;76
87;64;95;48
86;71;64;95
68;95;64;103
64;103;52;88
71;76;103;48
100;52;84;79
72;95;52;103
48;86;95;48
92;63;64;95
95;48;80;87
64;103;48;72
94;44;68;95
42;90;63;48
82;40;48;87
63;72;79;32
95;36;64;79
32;84;55;48
68;79;40;87
40;87;32;72
47;64;71;40
78;45;48;79
32;79;32;70
43;64;63;36
79;28;64;63
48;79;32;79
32;76;55;48
79;32;79;47
56;64;79;44
87;43;48;78
79;64;93;63
52;95;40;64
95;40;72;95
44;90;79;48
103;48;64;95
79;48;92;79
48;95;44;72
95;44;64;95
79;64;103;48
80;95;64;103
52;95;63;64
103;49;82;79
68;95;64;95
64;95;64;103
52;92;63;68
95;40;95;46
84;71;68;79
64;95;44;64
95;47;48;87
53;76;71;40
76;32;52;87
47;64;79;47
48;79;40;72
47;64;63;32
64;34;36;71
63;50;79;34
48;77;38;44
79;32;79;63
32;64;79;32
48;79;34;48
78;32;40;78
63;68;63;32
68;38;40;78
63;64;79;36
68;36;64;93
61;48;95;55
56;95;40;80
79;80;79;48
86;63;68;95
40;95;63;64
95;48;68;95
70;64;103;54
80;61;64;84
87;80;95;48
90;79;64;86
87;64;101;71
72;52;64;92
71;80;95;48
80;63;64;78
87;76;95;55
64;92;47;64
95;40;52;87
79;52;84;63
48;79;38;64
95;48;68;87
36;76;63;32
68;32;40;79
47;64;63;32
85;36;52;78
63;36;79;55
48;47;32;70
63;64;63;32
68;32;36;74
63;64;63;36
87;48;91;44
64;95;36;64
86;55;48;86
63;76;63;40
76;46;64;95
42;68;95;59
64;87;48;88
79;76;103;59
64;95;44;68
95;64;95;62
72;63;64;95
71;48;86;95
44;102;55;72
111;64;95;87
64;95;64;95
64;103;48;92
63;82;62;80
78;72;95;64
95;48;87;47
80;50;86;46
76;55;64;63
48;87;44;64
63;64;79;48
87;40;79;36
82;32;78;32
68;36;56;63
36;79;44;79
32;70;32;64
55;48;63;40
79;32;79;32
64;39;52;63
48;79;32;87
44;64;59;64
63;64;95;52
79;64;79;64
79;48;82;95
40;95;48;93
52;76;95;84
71;80;79;84
71;80;79;64
95;48;95;52
95;52;95;56
80;52;80;61
72;87;64;95
48;95;48;94
61;88;48;76
79;64;95;52
88;44;82;61
68;79;64;87
52;95;48;95
63;74;79;64
95;48;91;50
68;63;72;55
40;95;44;68
63;64;79;48
95;32;48;76
79;40;87;32
64;79;48;79
38;52;76;79
45;78;55;44
74;36;40;77
63;48;79;42
64;47;40;70
63;52;79;22
64;47;48;79
36;70;63;32
68;47;40;64
79;48;79;24
64;38;64;87
55;68;95;36
66;51;64;95
47;86;79;64
80;40;86;63
48;78;40;80
63;68;79;48
95;48;86;79
52;95;61;64
92;55;64;86
95;48;94;71
64;92;95;44
80;71;72;95
48;92;95;48
78;79;64;95
63;80;87;40
82;61;52;86
79;48;87;44
64;95;40;64
95;40;95;47
52;95;36;52
93;55;40;68
79;32;64;79
38;70;63;32
68;32;56;79
32;68;79;32
64;34;52;79
63;40;79;55
48;39;32;71
63;64;79;39
40;87;32;68
79;52;79;32
64;63;32;78
79;47;48;79
71;36;56;83
63;64;95;36
68;55;52;87
63;68;92;79
44;92;95;48
76;79;48;80
95;64;100;79
68;79;64;102
79;76;111;67
64;92;111;71
68;111;64;98
95;84;111;64
88;79;64;102
87;80;95;64
80;79;64;84
95;69;48;86
95;58;64;87
79;80;79;36
80;55;48;76
79;64;87;32
84;63;64;95
47;72;95;40
68;40;48;76
63;64;79;36
56;84;55;32
68;79;39;48
70;30;48;79
34;64;79;63
36;76;79;32
64;87;47;48
76;32;48;68
63;64;79;32
64;55;32;68
63;64;87;32
64;87;32;72
79;64;95;36
76;79;48;78
95;40;84;79
48;76;95;63
68;71;48;90
60;72;95;63
64;90;103;71
56;103;60;72
111;68;95;79
72;95;64;111
79;80;111;65
80;71;68;103
69;94;95;48
111;52;72;95
71;84;103;55
72;79;48;72
95;64;95;71
52;87;79;44
68;95;48;76
79;48;76;95
55;80;79;32
72;47;48;74
63;64;91;47
64;55;48;79
63;40;79;47
36;79;43;48
87;40;79;63
48;71;40;76
63;64;87;44
64;46;52;79
79;47;64;84
79;44;52;82
79;64;95;79
52;95;44;64
87;55;64;93
63;64;92;79
52;80;95;36
80;63;68;95
48;88;87;48
84;87;48;80
95;68;103;48
80;79;64;103
63;84;79;48
72;95;48;72
95;68;95;48
80;79;64;84
95;72;95;50
76;63;64;87
79;72;95;36
72;55;52;80
79;68;79;40
76;40;40;68
79;48;79;61
52;79;36;66
63;64;63;32
64;34;40;78
47;56;63;32
56;31;48;79
20;74;63;20
64;31;32;60
63;32;78;47
48;47;24;64
63;48;79;30
56;45;52;79
47;70;79;32
64;47;48;87
63;64;95;32
68;71;40;72
95;64;95;71
64;63;64;92
63;80;79;64
80;52;68;95
55;80;95;44
84;63;52;80
79;72;95;62
72;54;72;95
48;103;75;64
111;48;80;95
63;92;95;48
76;79;52;86
95;58;76;95
55;88;95;48
88;87;64;92
79;64;87;95
48;90;79;64
95;64;95;71
48;95;50;68
87;79;40;76
79;64;79;40
84;42;64;87
55;64;95;38
66;55;40;78
79;32;70;79
32;79;47;52
95;40;95;46
64;63;64;95
55;74;95;48
78;79;48;92
63;64;90;79
48;95;44;68
95;64;90;71
64;95;48;76
95;80;95;71
72;71;64;84
95;64;111;63
76;71;64;90
95;88;95;48
80;65;72;95
79;72;103;59
68;95;64;92
79;76;102;79
64;92;77;64
111;64;103;79
64;71;64;86
87;68;103;55
64;95;44;72
95;64;95;40
76;55;48;79
79;64;87;32
64;47;52;79
63;32;64;79
32;87;32;64
79;64;95;47
48;79;32;64
79;64;79;32
64;55;36;64
79;48;87;36
56;47;40;71
63;48;87;32
64;55;32;66
79;52;79;36
56;41;40;77
79;64;87;36
64;63;40;76
79;64;95;47
64;63;52;80
95;64;95;48
80;48;68;95
40;76;79;48
76;63;68;95
54;92;95;48
82;63;72;95
58;94;60;64
84;48;76;95
63;82;95;44
72;63;64;95
79;68;95;63
68;59;64;95
58;82;63;48
78;46;48;79
63;68;79;36
90;46;52;87
55;78;79;32
64;42;52;87
47;68;79;32
64;79;32;71
79;32;79;34
76;32;68;63
48;63;48;71
40;79;32;79
36;79;32;79
36;70;55;48
79;40;79;32
79;32;72;37
64;47;52;63
36;79;40;63
64;79;40;87
36;87;40;87
44;72;63;64
79;48;95;40
95;40;91;63
64;79;64;87
48;95;40;95
48;92;54;80
95;64;95;48
92;50;84;55
80;63;72;87
64;87;64;95
48;103;40;95
52;92;59;76
95;48;95;63
72;71;68;95
48;95;48;86
55;76;63;64
87;48;95;40
84;40;76;42
68;47;64;71
48;79;40;87
36;87;32;76
51;64;63;64
79;48;87;40
87;32;83;24
79;32;79;38
68;37;64;63
40;79;32;79
55;64;79;40
87;36;79;36
48;68;63;32
87;47;64;87
51;72;95;40
80;79;64;95
50;68;87;71
64;94;79;48
80;63;52;82
95;64;95;52
64;95;52;72
87;59;72;95
48;95;64;88
79;84;71;52
72;95;48;84
95;63;64;95
79;64;103;87
64;95;59;52
80;55;48;95
63;80;63;40
72;63;52;76
79;64;87;32
68;63;36;64
79;48;95;38
64;55;40;76
79;64;79;32
72;63;48;79
63;36;64;79
32;79;40;76
63;64;79;32
52;55;32;64
71;55;48;71
34;79;39;36
87;32;48;71
63;32;56;79
44;64;55;32
64;55;48;79
63;40;93;36
64;55;36;68
87;68;95;50
64;61;64;93
79;80;87;55
64;95;48;103
63;72;102;79
64;90;71;68
111;48;99;87
64;103;64;95
95;48;88;95
60;76;100;79
64;80;102;79
64;86;95;48
109;48;95;95
64;79;64;84
95;64;107;52
68;79;64;90
79;76;95;48
72;55;64;95
63;76;95;44
72;63;52;82
87;55;68;95
54;76;95;40
68;79;40;64
74;55;36;68
79;40;79;79
40;64;79;32
64;47;64;87
45;68;79;32
64;63;52;86
38;79;47;36
76;47;64;87
55;70;95;40
68;63;64;85
79;48;64;94
44;76;95;79
52;88;46;64
95;64;88;87
52;86;63;64
111;48;92;79
64;103;57;72
94;71;64;92
95;64;96;87
64;95;64;80
111;64;111;68
64;111;67;72
100;54;64;95
71;64;90;95
50;90;79;48
80;79;48;86
79;48;92;63
64;95;54;52
92;38;64;86
79;52;95;54
48;95;32;68
95;48;87;63
48;91;48;86
63;64;87;32
64;87;36;64
95;36;68;79
32;76;63;36
64;39;52;87
55;68;95;38
52;79;32;68
79;40;76;63
40;87;36;84
63;64;82;79
44;95;40;68
95;40;72;95
36;95;40;64
93;44;64;95
47;64;95;44
94;48;68;95
79;68;95;59
72;63;48;72
103;48;80;95
48;95;71;52
92;46;72;95
71;80;95;64
92;48;82;95
40;80;95;44
76;63;64;95
44;87;63;52
76;63;64;87
63;64;95;63
52;95;48;90
55;72;63;52
95;40;68;95
32;87;47;64
84;32;79;63
40;64;63;40
64;79;43;48
79;32;44;79
55;56;79;63
44;87;32;64
79;40;87;47
48;79;38;64
95;36;64;95
46;68;79;36
64;87;55;48
95;40;64;95
40;68;95;40
64;79;48;82
87;64;95;50
72;71;64;86
95;64;90;79
52;90;79;64
84;79;64;95
79;80;95;64
86;52;80;95
79;80;95;64
84;95;64;90
95;64;103;54
80;95;48;68
95;60;44;68
87;63;52;86
79;52;84;79
48;95;44;52
95;36;64;91
63;64;95;63
52;93;40;64
95;36;64;87
32;83;47;52
77;46;52;79
63;48;79;55
48;47;52;79
36;52;79;32
52;63;40;71
63;40;83;63
36;86;63;48
79;55;52;87
47;52;95;40
64;55;32;72
87;40;82;79
44;78;55;48
76;79;64;92
71;80;95;48
64;103;63;52
86;63;64;90
87;64;100;79
64;103;56;76
111;48;88;95
64;94;79;64
92;54;80;103
48;95;71;72
95;71;64;95
71;86;79;48
76;95;64;103
63;80;95;64
92;48;72;95
61;78;95;48
64;95;46;48
78;63;40;78
79;48;95;39
64;87;34;64
95;38;64;91
55;64;87;32
72;47;48;79
47;70;63;40
64;63;40;76
63;52;63;32
64;30;64;79
24;79;32;64
79;43;48;79
47;48;87;46
48;79;38;64
79;44;48;79
79;40;81;79
40;87;40;72
79;52;95;44
74;63;48;76
87;48;95;63
64;95;44;68
95;44;76;87
48;86;79;64
95;79;64;86
95;52;64;94
79;64;84;95
48;95;50;72
95;55;76;95
40;95;44;87
87;68;95;71
64;95;48;64
95;40;80;95
40;80;36;87
38;78;59;74
71;48;87;48
90;40;78;46
64;47;68;51
48;63;72;63
52;63;48;79
40;79;44;79
32;87;32;87
32;72;47;64
63;48;87;36
86;32;72;87
36;87;36;87
36;78;47;72
79;48;87;64
87;48;95;44
84;53;66;79
52;95;64;95
54;86;59;76
79;64;95;52
92;48;84;71
76;79;72;95
64;95;64;111
64;107;48;107
87;84;87;80
103;64;111;52
103;64;107;52
96;69;80;95
64;95;64;107
71;92;87;80
103;64;103;64
103;48;92;63
88;63;72;79
52;76;95;51
72;79;48;76
79;63;64;86
63;64;95;55
64;95;59;48
72;79;40;76
55;48;87;43
64;79;38;52
75;32;64;79
47;52;79;32
79;36;32;68
47;52;79;32
48;63;32;64
79;40;79;63
36;87;36;64
76;47;36;68
63;36;68;87
32;87;47;64
79;44;64;95
42;78;79;40
72;87;32;76
87;52;95;63
64;95;48;76
95;48;72;95
40;76;95;40
68;87;44;80
91;63;68;103
55;82;87;48
80;95;40;80
95;48;84;87
46;87;95;53
72;95;48;64
91;55;64;92
38;93;36;64
95;40;64;87
32;70;79;40
72;79;32;70
87;36;75;79
43;68;63;32
64;63;34;52
87;36;71;55
40;55;36;79
47;56;79;32
64;63;32;72
63;32;79;39
48;79;46;32
56;36;48;79
20;79;47;36
64;63;32;76
79;52;93;55
64;87;40;74
95;48;72;95
40;95;46;68
95;44;90;95
48;92;79;48
72;71;48;76
95;48;72;95
48;88;79;48
107;56;64;94
79;72;95;71
64;79;48;80
87;68;103;63
64;103;50;64
84;40;64;95
32;74;79;40
68;95;32;64
95;36;64;87
63;72;79;48
95;36;68;95
32;79;63;48
76;44;52;85
34;56;79;36
56;63;36;64
79;52;79;32
52;79;32;52
87;40;70;79
32;91;63;48
79;63;32;68
79;36;76;63
32;87;32;64
79;36;64;79
40;87;32;68
87;36;76;95
36;95;46;64
91;79;44;68
95;46;64;86
95;64;88;87
70;76;95;95
64;92;95;48
76;103;79;48
84;63;68;103
48;76;95;52
64;87;48;72
95;63;64;88
71;64;95;55
64;95;46;64
92;63;64;87
95;48;95;79
52;95;75;64
95;50;64;94
60;64;95;55
64;87;40;76
95;40;76;87
44;84;63;36
64;59;52;91
32;87;47;48
76;63;32;64
79;32;76;63
32;79;32;64
79;32;56;79
20;87;63;32
68;55;32;70
63;40;64;79
43;56;79;32
64;63;32;64
79;47;48;86
38;72;79;32
64;87;46;48
79;63;64;87
59;52;95;47
64;87;64;95
63;80;95;48
72;95;48;68
95;44;64;95
55;72;95;50
68;95;59;64
92;44;80;95
48;87;79;48
72;79;44;84
87;44;64;95
60;84;63;48
68;87;47;64
91;55;40;72
87;48;84;79
40;90;71;36
64;79;39;64
95;44;64;79
32;87;36;64
95;40;68;87
32;86;46;48
70;63;36;79
47;52;79;32
52;79;35;52
79;40;79;42
48;79;32;64
63;52;87;47
48;79;40;76
79;40;64;87
63;52;85;79
40;78;63;48
86;38;64;87
40;78;63;40
72;59;48;76
63;68;87;42
64;87;40;64
94;48;72;95
63;68;95;50
64;95;48;68
95;71;48;76
95;48;68;95
52;64;95;71
64;95;48;76
95;48;84;87
52;95;55;64
84;47;72;95
40;85;51;64
95;36;52;95
39;78;79;40
52;79;40;64
79;32;66;87
32;64;63;24
74;34;48;79
47;64;79;38
40;79;32;64
79;36;64;63
32;70;47;36
64;63;24;48
87;32;79;24
56;63;32;66
63;36;64;79
55;48;76;63
32;87;55;48
87;63;32;68
87;59;48;84
79;48;95;55
64;79;64;95
79;64;103;79
64;90;79;52
72;87;48;82
95;64;84;95
66;80;103;48
88;79;48;80
111;52;64;92
63;84;95;48
76;79;48;84
95;59;64;95
71;72;95;52
64;95;48;76
95;64;95;59
64;79;40;74
79;48;82;79
40;79;48;95
36;80;32;76
63;48;79;32
79;36;87;32
68;32;64;55
48;79;32;75
47;64;47;56
79;32;68;47
48;63;40;79
32;79;32;68
47;64;63;48
63;40;87;40
79;32;76;38
72;47;64;79
48;79;48;79
32;86;47;72
79;48;95;36
95;44;86;52
76;63;72;87
52;95;48;95
50;86;54;95
71;72;79;72
95;64;103;56
88;79;68;95
64;95;64;103
64;103;54;92
95;68;103;68
111;64;95;64
87;80;95;64
103;48;102;58
84;79;68;95
52;95;48;95
48;87;44;82
95;48;80;95
52;87;64;95
48;95;40;87
63;72;63;64
79;64;79;48
87;40;87;38
64;79;32;68
87;44;76;79
40;76;63;32
68;47;64;87
40;64;79;32
52;79;40;79
47;68;87;40
64;63;40;72
63;48;84;63
48;87;55;64
95;50;64;95
40;72;79;48
92;63;48;86
95;64;84;95
54;80;95;48
68;95;64;92
95;68;79;64
90;63;72;95
71;76;111;62
68;103;71;64
84;51;86;95
67;72;100;79
64;95;54;64
102;59;72;103
63;80;95;48
92;44;64;95
55;76;95;40
64;79;40;64
95;32;74;79
40;79;32;66
79;36;87;55
48;85;39;64
95;36;68;79
36;79;53;40
68;43;36;64
63;40;64;63
32;76;79;24
64;63;48;79
47;56;79;32
70;47;40;68
63;48;79;32
52;72;55;48
79;32;84;63
48;79;36;74
63;48;82;63
44;91;36;76
87;48;95;55
72;71;48;95
79;64;103;55
72;87;48;64
84;48;80;79
52;95;71;64
84;79;64;95
79;72;63;64
101;58;68;101
63;64;95;48
64;61;64;87
48;76;87;48
68;55;64;93
71;64;71;40
64;42;68;79
40;79;36;70
87;40;84;71
40;87;32;72
79;32;64;87
55;52;76;79
40;72;79;32
48;79;32;64
79;44;79;63
36;68;63;40
76;34;66;78
36;52;79;47
40;86;63;32
64;79;32;68
63;40;84;63
40;76;79;40
90;36;64;87
63;64;93;63
48;95;44;64
84;63;40;64
95;44;76;79
48;87;42;76
79;64;95;79
48;95;48;80
95;64;95;95
52;103;71;64
111;66;80;111
71;84;111;70
64;95;64;84
111;64;84;95
68;72;103;59
64;95;48;80
95;64;90;79
48;86;63;48
92;48;64;87
79;48;87;32
64;79;34;64
79;32;48;78
63;48;87;39
44;79;55;40
93;32;68;79
42;52;86;55
48;87;32;64
79;32;40;64
79;24;66;79
44;64;63;32
70;32;64;79
32;87;39;48
87;32;79;63
52;79;44;48
76;55;64;95
40;84;75;52
91;36;76;95
36;95;40;76
87;64;95;79
52;95;64;95
63;48;72;103
79;68;94;95
52;92;63;64
92;71;48;82
103;48;103;55
72;79;48;68
95;42;84;95
48;91;48;64
95;40;87;63
48;95;63;64
95;59;64;91
47;64;86;63
48;92;63;40
72;55;32;68
79;40;79;63
40;79;45;48
78;79;36;64
95;36;70;79
32;66;63;32
64;47;32;87
36;68;79;34
64;63;36;79
63;48;87;43
64;79;32;70
79;64;79;32
70;47;40;79
79;32;76;63
52;87;52;84
79;48;95;63
52;90;71;64
87;59;64;95
63;76;95;48
72;95;48;84
95;52;92;87
64;103;52;90
103;64;107;79
72;103;64;68
96;71;64;95
95;72;103;64
84;71;64;95
95;64;95;95
64;95;67;68
95;48;92;87
54;80;79;48
68;87;40;74
95;40;64;87
63;48;87;79
32;78;63;40
90;32;77;63
44;87;37;64
79;79;48;76
63;48;63;39
64;79;32;64
87;32;87;47
52;79;34;48
91;32;56;87
32;86;38;48
87;43;40;68
79;36;78;63
44;87;63;40
68;36;64;87
40;79;59;40
70;55;52;85
43;56;87;36
64;71;36;68
95;36;82;79
48;95;79;52
84;79;48;64
92;40;87;95
48;95;79;48
72;63;64;84
71;72;103;62
64;79;68;103
63;72;95;48
92;60;64;95
79;64;90;95
58;84;87;64
100;48;87;87
52;95;46;64
95;40;48;87
47;48;78;79
40;87;79;40
72;87;55;48
70;46;40;70
79;32;56;79
39;52;79;32
52;63;26;44
79;32;72;63
32;79;32;52
79;32;64;79
32;78;63;36
64;63;36;64
87;32;64;79
63;52;93;55
52;95;55;64
95;52;80;79
52;95;63;64
95;50;68;95
40;95;95;48
76;87;48;80
95;52;86;95
52;102;48;88
95;64;100;79
64;103;52;96
95;64;110;79
64;107;67;72
100;55;76;103
52;95;95;48
68;95;52;64
94;44;84;95
40;95;63;48
78;50;52;82
79;48;78;79
36;87;79;36
76;63;36;74
55;48;87;34
44;79;32;48
76;55;26;56
79;32;40;79
24;64;55;36
71;37;44;79
55;48;79;47
48;87;46;36
68;32;32;71
79;32;68;79
32;87;79;40
64;95;38;68
95;44;93;79
52;95;63;48
78;87;63;68
95;44;64;95
40;64;95;60
64;95;48;68
103;64;95;87
52;95;56;76
95;48;72;103
44;68;103;71
64;103;52;72
111;48;88;95
48;95;62;64
103;50;68;95
95;64;84;95
48;95;79;48
80;44;64;95
55;68;87;48
52;79;40;64
95;40;80;79
36;84;55;48
79;47;32;76
79;32;72;79
32;68;79;34
64;55;36;76
35;32;64;63
32;70;63;32
64;79;32;64
87;32;68;79
32;85;63;32
79;39;52;87
63;56;87;79
40;95;40;64
95;40;84;79
48;76;87;40
68;95;40;76
87;52;82;87
52;72;95;50
64;95;64;103
79;68;95;87
64;95;52;90
95;64;109;79
64;103;60;80
111;64;88;95
64;84;87;64
94;69;64;103
53;92;71;64
95;48;94;95
40;84;87;48
72;87;44;78
87;48;82;79
48;95;53;64
95;40;72;95
32;74;71;40
78;32;48;76
63;40;68;79
39;68;63;36
84;36;64;79
39;64;79;32
68;63;32;68
63;40;71;63
32;79;79;32
64;53;36;78
47;48;79;32
48;79;34;52
71;47;36;76
79;40;79;55
48;93;40;64
91;40;64;87
55;64;79;47
52;78;63;48
86;40;64;95
36;72;95;40
76;95;48;64
86;44;64;95
79;64;95;62
64;95;48;80
95;40;80;95
54;82;63;64
95;40;72;95
63;76;63;64
95;48;76;95
60;76;79;48
94;71;40;76
95;48;90;79
40;84;95;44
72;63;48;95
38;64;94;47
48;87;40;76
87;40;70;79
40;87;63;40
76;79;40;84
55;64;87;36
72;55;48;85
79;64;87;36
68;71;48;76
55;44;87;63
40;79;32;76
63;68;87;36
68;71;48;87
79;64;95;53
52;95;63;48
72;95;44;72
95;49;72;95
63;88;79;64
107;58;72;95
71;80;95;64
86;95;69;64
106;48;80;111
48;100;79;64
100;54;80;111
50;72;103;56
64;87;50;72
95;40;72;95
79;64;95;48
80;95;79;64
84;79;48;76
95;52;95;54
72;63;36;70
87;46;64;86
42;64;87;36
68;47;52;85
63;48;87;36
64;63;48;87
36;70;55;68
79;40;87;32
87;32;78;43
76;42;64;55
56;79;32;87
32;79;55;64
87;40;82;32
79;32;83;38
68;47;64;63
48;79;52;95
40;95;44;92
54;74;59;72
71;68;79;64
94;44;95;54
86;61;80;63
72;87;64;95
48;95;64;95
48;103;52;90
71;80;79;80
95;64;107;63
92;79;76;60
88;79;72;87
76;75;68;95
52;95;71;72
71;80;63;76
95;64;95;48
86;48;84;63
68;79;64;79
72;63;64;79
48;79;48;95
40;84;39;72
79;40;87;47
79;40;68;47
70;55;64;63
44;79;36;79
32;87;36;64
79;32;79;36
64;43;66;43
72;34;72;47
64;63;52;83
36;77;79;40
72;32;68;79
32;72;63;36
64;63;32;64
87;32;52;87
36;68;79;48
79;53;48;87
47;40;74;79
40;86;55;36
64;87;47;64
95;40;87;79
48;95;44;64
95;48;64;95
63;64;95;79
48;95;95;48
84;95;48;72
95;46;64;87
87;64;95;48
84;55;64;91
54;64;95;79
64;95;51;64
95;71;40;68
87;48;95;55
64;95;40;64
82;63;40;70
79;48;87;60
48;79;36;52
87;38;64;79
63;64;63;36
76;47;36;78
79;48;87;32
64;79;40;79
63;64;87;32
64;79;32;64
79;64;63;32
64;71;42;64
95;40;68;87
50;76;63;40
76;63;40;70
93;36;76;79
48;87;42;68
95;44;76;95
44;80;95;48
92;50;68;95
40;86;95;48
68;79;64;84
71;64;95;63
64;95;52;72
95;48;82;95
48;95;48;68
95;40;72;95
42;78;63;48
94;36;64;87
63;52;79;32
80;39;36;70
63;48;87;47
40;79;47;40
79;32;64;79
24;68;63;24
64;63;32;64
63;32;79;39
48;79;24;56
79;32;64;63
24;79;39;48
87;32;48;79
47;52;79;44
40;77;55;40
79;38;64;79
32;79;44;48
82;32;70;63
32;87;79;40
68;63;32;68
87;64;95;54
52;95;58;64
88;46;52;82
95;48;72;95
50;80;79;48
76;95;40;76
95;40;76;79
52;79;52;76
87;48;91;79
64;95;46;76
95;42;72;95
46;68;95;79
52;86;63;64
95;63;64;92
55;64;95;79
48;93;59;64
92;42;68;95
54;64;87;63
40;70;71;40
76;63;36;64
79;40;74;79
36;76;63;40
79;32;40;79
36;64;79;32
52;79;55;32
64;79;44;40
70;63;32;64
79;36;64;79
36;74;63;40
64;87;38;56
87;36;64;95
36;76;79;40
64;87;50;64
86;79;48;64
95;64;95;54
76;95;60;64
103;52;92;95
52;95;87;64
92;50;76;103
62;80;103;48
84;95;52;76
95;64;64;95
79;72;111;52
68;95;67;64
92;71;48;76
87;44;92;79
44;94;71;64
95;52;68;95
36;72;79;48
80;47;48;76
79;52;79;32
68;47;44;79
26;87;55;40
84;36;64;79
36;74;55;48
87;32;66;87
44;68;55;64
78;63;32;70
87;40;79;48
87;34;64;79
32;87;32;84
38;87;79;36
64;79;47;48
79;55;52;87
32;95;36;64
95;40;76;87
44;93;55;64
95;44;78;95
55;80;87;48
64;95;95;54
64;95;52;68
102;48;64;80
95;64;103;48
72;79;64;76
95;64;103;70
72;95;64;103
95;80;95;64
86;95;56;80
95;48;80;95
52;84;95;48
68;87;48;76
95;48;80;95
40;95;63;48
88;63;76;95
48;86;63;72
95;40;76;95
44;87;32;76
95;40;74;79
36;87;63;52
87;38;64;79
40;74;55;48
86;32;56;79
28;87;24;64
79;36;72;63
36;79;32;74
79;32;78;63
40;63;36;76
79;48;87;36
68;79;55;48
84;55;64;95
63;68;87;48
68;95;40;64
95;40;80;95
48;89;59;68
95;46;64;95
71;95;71;64
103;48;92;61
64;95;79;48
88;63;68;79
64;95;48;92
79;64;95;40
78;95;40;72
93;59;52;94
71;64;95;60
64;95;61;64
92;48;68;95
63;78;63;64
95;40;72;79
32;86;36;64
95;40;72;79
40;68;55;40
78;79;79;32
76;36;56;79
63;44;79;36
64;63;32;72
39;64;87;63
38;72;43;48
70;79;32;64
87;48;87;32
78;63;64;79
40;95;40;68
95;40;76;79
36;68;79;40
72;79;63;48
86;50;64;92
79;52;95;51
64;95;52;64
92;59;64;95
79;72;95;52
64;95;55;76
103;64;95;59
64;103;79;64
80;63;64;84
95;48;95;79
48;95;54;64
87;59;64;95
40;95;44;68
95;40;68;95
55;74;63;52
95;36;72;79
45;84;50;64
84;55;64;95
32;79;45;52
95;36;56;84
63;64;79;52
95;32;68;87
32;87;36;52
71;63;36;78
39;79;63;36
78;35;64;79
32;79;47;48
87;36;64;87
55;68;79;40
72;55;64;84
79;64;63;64
95;40;68;95
36;93;63;48
84;55;64;79
52;87;48;95
40;95;48;95
60;84;63;76
95;64;87;72
103;48;95;57
80;79;72;95
64;95;64;111
64;103;48;103
54;92;67;92
71;76;95;52
95;48;86;52
84;63;72;87
64;79;64;95
44;84;40;78
79;64;87;52
95;40;87;63
64;63;64;71
64;87;48;95
40;95;40;87
36;78;39;68
55;52;55;64
63;52;79;40
78;32;68;38
64;43;64;63
56;63;40;79
40;87;32;72
45;64;59;52
79;32;87;32
68;51;64;63
64;79;64;79
48;79;52;95
48;95;52;87
63;68;79;64
95;44;76;79
64;87;64;95
48;95;48;95
44;95;48;82
71;72;87;64
95;64;103;64
95;64;111;48
103;52;84;95
52;72;95;48
76;87;48;72
94;40;76;95
48;95;63;64
103;40;76;95
63;76;63;64
87;79;40;76
95;44;95;63
40;95;71;48
95;36;80;55
48;87;36;72
87;52;87;32
52;79;40;79
63;64;63;48
87;36;68;79
55;70;55;52
87;32;68;87
63;64;63;32
68;55;44;79
71;64;79;52
95;36;72;95
63;76;87;40
76;63;64;95
79;64;87;44
76;71;68;79
52;87;52;64
103;48;84;95
48;103;63;64
103;48;76;95
48;103;52;72
95;64;95;95
52;103;56;76
111;52;92;95
48;95;71;64
103;52;76;95
79;80;79;64
92;60;64;95
40;95;52;64
95;52;72;95
40;95;54;64
95;44;68;91
63;86;71;48
88;47;64;86
47;86;55;40
82;42;68;79
38;76;55;48
95;36;64;87
53;66;55;48
91;32;64;87
63;64;79;36
80;39;48;74
46;78;71;36
76;47;48;79
79;64;63;64
95;36;70;94
40;90;79;48
64;95;40;76
87;55;48;84
87;48;90;95
59;86;95;48
68;95;48;72
95;48;90;87
56;80;79;64
103;52;80;79
52;103;87;64
94;62;68;101
95;64;80;111
52;103;52;84
95;64;90;95
52;95;79;68
111;48;76;103
40;95;48;68
95;40;74;95
36;90;63;48
72;87;87;40
64;95;63;52
95;36;72;87
36;87;47;48
87;55;52;79
40;79;32;64
87;32;76;55
36;64;63;32
64;47;40;64
79;40;79;32
68;47;56;79
20;87;43;48
87;32;64;79
46;70;63;52
82;79;46;64
84;79;40;76
87;48;84;95
55;84;79;72
94;44;64;94
50;86;87;48
86;54;68;95
44;95;54;68
92;42;90;79
52;84;63;64
95;62;64;95
71;76;87;64
103;55;68;95
40;95;46;64
103;40;72;95
87;48;95;87
40;92;95;44
68;87;40;72
79;64;91;71
44;90;71;48
86;47;68;91
43;86;71;40
70;55;48;79
63;48;87;39
48;79;55;48
87;48;87;45
48;79;40;64
79;40;79;36
44;78;79;36
44;79;40;48
84;38;64;87
32;86;63;44
91;37;64;87
32;95;55;52
88;46;64;95
36;91;55;64
95;40;82;95
63;72;87;64
92;55;72;95
79;72;79;72
93;71;76;103
44;103;79;64
96;75;68;102
55;99;79;64
100;54;80;111
48;103;58;80
111;64;84;95
64;84;71;64
95;50;64;95
44;87;79;44
64;87;40;78
95;52;95;44
64;79;64;93
79;64;79;48
76;71;48;72
87;36;79;63
40;86;39;64
95;32;87;43
40;79;79;32
64;87;47;48
86;32;64;79
32;87;47;44
86;34;52;79
55;64;79;44
44;79;79;36
68;55;64;87
40;86;51;52
84;63;40;64
95;36;64;79
44;94;52;48
79;87;40;68
95;40;95;63
64;95;64;86
79;64;95;60
68;95;48;80
111;64;103;60
64;111;79;64
76;111;48;80
111;52;80;103
79;84;87;64
103;58;76;95
79;84;71;64
103;48;64;92
95;72;79;64
102;52;78;79
52;95;63;64
95;45;64;95
36;95;36;72
95;36;76;63
48;95;63;40
52;63;40;70
55;48;79;55
48;79;48;79
79;48;87;38
64;55;48;72
79;56;79;36
78;47;48;79
39;83;63;36
72;47;56;87
60;68;79;55
48;95;61;48
72;79;40;68
79;48;87;63
40;95;79;48
80;79;64;93
87;64;95;48
80;95;64;80
79;48;88;95
48;103;52;72
111;64;95;64
90;71;68;95
64;103;54;64
92;58;80;95
64;95;63;48
68;95;48;64
95;40;76;71
40;87;53;48
72;79;42;64
93;40;52;83
79;64;87;38
48;84;79;32
66;87;36;68
55;64;87;63
36;87;63;36
76;47;56;87
47;66;79;32
64;63;36;64
63;68;63;32
64;55;24;68
79;40;87;34
64;63;48;63
40;87;55;40
80;47;64;87
43;84;55;48
95;36;52;87
79;48;90;79
48;84;63;68
94;79;48;82
95;48;92;79
64;103;48;76
95;68;95;50
76;95;56;84
111;52;88;87
64;107;52;76
111;52;72;103
95;68;103;68
64;95;64;92
63;92;95;64
96;63;80;79
52;95;75;48
88;71;64;90
55;72;95;48
95;40;82;63
64;79;64;79
48;95;40;82
71;64;79;64
79;40;79;47
72;59;64;87
48;87;40;87
32;87;32;87
32;79;32;70
63;52;79;32
79;32;77;36
68;55;48;79
48;79;36;79
36;79;46;64
63;48;79;36
76;47;68;47
64;63;48;79
48;95;40;91
36;86;40;86
52;76;63;64
79;64;95;48
95;40;95;46
76;71;64;95
52;95;48;92
50;86;63;68
95;48;103;48
94;48;86;63
72;79;64;95
64;95;64;95
48;95;50;80
87;64;95;64
95;48;92;48
76;46;68;63
52;87;36;87
32;87;32;70
63;64;63;48
79;48;79;40
87;32;76;32
70;47;56;63
40;79;32;64
79;32;64;63
32;79;39;44
64;63;32;64
63;44;79;47
48;87;48;78
71;64;79;48
95;40;66;87
55;72;71;48
82;55;64;95
54;76;87;52
72;79;48;72
95;52;95;44
84;63;64;92
79;68;79;64
95;63;64;94
79;68;87;64
95;64;80;95
48;95;71;64
103;48;84;95
64;103;64;80
111;52;72;103
52;92;87;48
92;95;48;88
95;72;95;64
100;60;76;94
44;94;87;48
76;95;48;64
95;40;78;63
48;95;36;64
94;36;78;60
52;79;40;64
79;32;68;79
32;79;32;52
79;44;87;43
40;71;39;48
75;32;52;79
55;40;74;63
36;79;63;36
70;55;48;79
36;85;63;44
79;71;36;76
79;64;87;40
72;63;64;95
71;64;87;48
92;50;68;94
47;72;95;50
68;87;52;82
79;68;87;52
92;63;64;93
95;68;95;64
84;95;52;76
111;64;95;64
76;103;64;64
103;52;68;95
87;64;103;48
84;79;64;95
63;72;95;64
84;63;48;80
95;40;84;55
52;95;40;76
87;40;64;87
32;87;79;36
68;63;52;78
79;32;70;79
32;68;79;36
64;63;40;79
30;74;79;32
44;79;63;32
78;47;48;79
36;79;55;48
95;32;76;63
40;87;63;36
52;87;55;48
76;79;36;64
95;40;72;87
36;87;71;48
84;61;64;95
40;94;71;48
95;42;76;79
48;95;44;64
95;40;84;95
40;95;77;64
95;56;80;87
48;103;60;64
103;63;68;95
55;100;63;68
111;48;80;95
64;103;95;64
102;62;84;103
66;80;79;52
80;95;44;64
95;40;76;79
36;76;63;48
74;63;40;72
87;36;76;87
40;78;63;48
79;55;64;85
79;52;87;32
52;87;32;64
63;48;79;32
70;39;52;63
32;76;63;32
68;47;48;78
79;44;79;55
36;74;55;40
87;32;87;32
48;70;79;32
48;79;71;32
64;63;44;72
79;64;91;36
52;87;63;40
82;42;68;87
71;52;95;38
68;71;52;82
63;68;95;63
48;95;46;64
103;44;64;90
95;64;95;64
100;55;68;95
77;84;95;79
64;103;58;76
111;64;98;87
64;111;52;88
87;84;95;56
80;87;48;68
95;64;95;46
72;79;52;80
95;52;95;40
72;95;40;72
63;52;95;40
48;83;41;48
78;32;64;79
38;64;78;63
32;79;63;32
70;55;52;79
39;64;79;32
64;87;34;52
79;48;79;32
68;55;52;79
79;48;79;36
76;53;64;87
32;78;87;40
76;63;64;92
71;64;95;52
95;54;64;95
44;95;79;64
102;48;86;79
64;103;87;54
72;103;52;76
95;64;103;79
72;95;64;100
95;68;111;64
92;79;72;103
63;94;95;64
94;79;72;103
95;64;103;48
72;79;64;86
63;94;79;64
86;95;64;86
95;64;103;71
48;88;95;48
84;63;64;95
40;64;95;46
64;79;40;68
95;36;78;63
44;87;55;64
95;38;64;87
63;64;71;52
95;32;64;79
36;79;79;36
64;63;48;87
32;78;63;32
72;63;48;78
63;68;63;36
78;63;48;87
43;82;87;46
48;87;61;48
84;63;40;72
63;64;95;36
76;63;68;63
64;79;48;88
55;86;87;48
84;63;64;95
87;72;95;64
103;52;80;95
58;88;87;64
98;63;68;103
79;76;95;79
64;82;79;64
100;48;95;48
84;71;64;95
40;92;95;40
64;87;48;76
95;40;95;63
48;95;36;72
95;48;93;55
64;79;44;64
95;40;87;63
48;95;64;95
63;68;54;64
78;55;48;87
63;64;63;48
92;40;70;63
40;87;79;48
91;45;64;95
54;74;63;48
72;62;40;68
95;40;87;40
64;79;40;74
63;80;79;44
86;59;64;93
52;95;63;64
103;48;76;87
52;95;79;64
95;71;76;103
48;95;87;64
95;60;80;95
64;80;103;64
82;63;64;103
79;92;87;64
84;95;64;95
95;68;111;71
64;103;87;48
76;95;62;64
94;55;68;95
54;86;95;79
48;92;91;48
88;58;72;79
40;68;95;59
64;93;87;44
64;95;42;64
95;40;76;87
36;95;40;64
87;32;64;87
63;64;79;36
64;79;45;48
79;37;40;70
79;32;72;63
32;76;39;40
79;32;78;32
74;32;70;43
66;55;52;79
48;79;32;87
32;87;36;72
71;64;95;48
91;44;84;48
76;55;64;71
64;95;64;95
48;95;40;94
48;90;62;72
79;76;87;64
95;48;95;44
80;63;78;79
76;79;64;95
64;95;52;88
63;84;63;64
95;52;95;44
92;44;80;71
68;79;64;95
48;95;40;84
47;78;55;68
87;48;94;40
78;47;64;79
40;87;36;87
32;79;38;64
63;52;63;40
79;32;74;37
64;39;48;47
48;63;32;66
47;64;55;56
63;48;79;40
76;38;64;63
52;63;40;71
40;79;36;87
32;91;40;78
55;72;79;64
87;40;87;39
76;55;64;41
74;53;48;87
36;64;79;36
64;76;63;40
86;51;40;68
79;64;95;45
52;95;79;48
76;95;40;68
95;40;95;32
68;63;64;87
36;87;55;48
80;63;48;72
87;40;94;59
64;95;48;64
87;38;64;86
87;40;76;79
40;87;51;64
91;44;52;78
79;48;87;46
32;87;36;64
76;63;32;68
79;32;74;79
36;76;39;56
87;32;56;79
30;72;79;32
68;55;64;55
40;79;55;36
76;42;32;64
55;66;79;32
52;87;32;64
79;64;87;47
64;87;40;64
87;64;95;44
64;95;44;64
95;48;95;32
72;63;64;95
47;86;95;48
86;63;68;95
54;80;95;48
94;63;76;79
64;103;87;64
98;79;64;103
63;84;95;56
80;87;64;80
111;64;103;52
76;95;64;80
95;64;95;95
52;95;54;76
95;64;95;59
64;95;64;94
95;52;95;48
74;95;48;87
95;48;95;52
90;55;52;83
63;64;87;36
64;76;63;32
64;79;55;32
64;63;36;68
79;36;79;59
40;87;32;64
79;32;48;74
79;32;70;79
63;52;87;36
76;55;64;79
32;72;79;40
72;63;40;76
71;64;87;40
64;87;79;44
72;71;64;95
77;48;93;40
68;95;71;64
92;63;64;95
87;68;103;95
64;107;71;64
106;52;84;79
64;95;64;84
95;80;95;64
96;79;72;103
95;80;111;79
64;94;95;64
96;71;68;92
79;76;95;64
84;79;48;92
63;64;95;50
72;79;48;95
47;76;95;40
72;63;64;87
79;48;76;63
40;87;79;36
78;45;48;79
36;76;79;32
68;63;48;83
47;76;79;32
64;63;40;79
63;48;87;47
40;79;79;40
48;78;71;32
64;87;32;68
63;64;79;40
90;51;64;79
44;95;40;68
95;40;86;79
48;95;40;64
95;48;95;54
68;79;40;76
95;36;88;95
48;94;87;48
94;63;68;95
63;92;79;64
111;64;94;95
64;111;95;64
96;79;72;103
71;100;95;64
100;67;68;107
60;80;71;64
88;55;72;87
48;95;51;64
95;50;64;94
32;82;95;51
64;79;48;87
63;74;55;64
95;46;48;83
47;68;79;24
64;63;32;64
79;32;64;63
32;52;79;32
48;75;79;32
64;55;32;64
79;36;87;47
64;79;40;64
79;48;87;44
64;63;52;93
54;80;87;44
72;79;48;80
71;64;95;40
84;55;72;95
48;95;71;64
95;71;64;94
79;72;95;58
64;103;64;96
71;100;95;72
111;48;103;95
64;103;103;64
96;79;72;111
71;88;95;64
96;79;68;95
71;84;95;44
64;95;48;84
71;76;95;50
72;87;44;64
95;40;78;55
40;68;93;42
40;86;79;36
76;55;48;86
32;87;46;40
79;55;32;64
79;32;64;63
32;79;32;64
79;32;79;32
70;47;48;79
24;70;63;32
78;39;40;79
37;72;79;32
70;55;48;70
87;36;86;55
48;87;48;76
63;64;87;38
64;72;87;40
64;95;87;40
64;86;95;48
64;95;87;48
84;63;64;94
87;64;95;79
52;76;79;64
103;48;86;87
64;111;64;92
95;64;111;48
76;95;48;84
79;64;95;63
64;95;52;78
95;48;95;40
80;63;64;95
47;78;95;46
68;71;48;84
63;64;91;79
44;80;55;64
95;40;95;32
64;87;36;48
79;36;87;47
52;79;32;52
79;32;78;63
32;87;32;52
79;48;87;46
52;79;36;70
63;52;87;46
64;79;48;87
79;48;87;79
46;68;79;36
86;46;64;79
40;95;44;64
92;36;76;63
40;87;63;48
92;40;87;40
64;79;48;95
48;95;40;76
71;68;79;64
95;48;95;52
95;40;95;40
90;46;84;87
64;95;64;95
52;88;63;64
95;48;91;63
76;63;72;63
68;79;44;87
48;93;40;84
61;72;46;64
87;40;91;32
79;32;66;78
44;79;40;87
32;79;32;64
55;64;63;64
79;52;79;36
76;34;64;46
56;63;40;79
32;87;32;76
32;68;32;68
47;58;55;64
63;48;79;40
74;39;64;79
40;87;36;87
36;84;36;64
63;64;59;64
95;48;93;36
78;63;76;71
64;79;64;79
48;95;44;92
44;89;46;84
54;76;62;64
95;48;95;44
80;79;72;95
64;95;48;103
48;95;48;82
87;80;79;68
95;64;103;71
52;84;95;63
68;95;64;92
95;64;95;71
64;95;50;68
95;64;95;61
64;95;64;95
62;72;95;40
76;79;40;74
79;64;95;55
64;79;48;72
95;40;72;87
40;85;59;36
76;43;74;55
36;79;43;40
87;36;79;31
48;79;32;75
47;64;79;32
64;63;36;70
63;56;79;48
78;39;48;86
32;64;79;32
76;55;40;68
63;52;87;47
64;87;48;76
95;48;95;32
64;79;48;86
61;72;95;47
68;87;52;84
87;64;95;44
76;79;52;84
95;48;95;40
68;95;64;94
55;90;95;52
68;90;71;64
103;48;94;71
64;95;48;64
95;64;95;44
64;84;79;40
68;87;54;48
84;63;48;80
63;70;94;55
64;87;36;64
93;32;87;38
48;76;55;36
72;47;48;63
32;79;32;56
63;32;64;63
32;79;24;48
79;32;78;47
32;79;32;64
63;56;79;47
48;79;40;76
79;40;87;42
48;79;36;68
63;52;79;32
64;87;42;52
95;48;87;71
52;95;48;86
95;64;95;79
52;88;95;48
76;79;48;80
87;64;95;79
64;95;56;72
103;67;64;103
79;76;95;48
88;71;76;95
52;95;79;52
90;87;48;86
95;64;95;95
52;80;79;48
92;48;94;45
68;87;48;80
87;44;87;47
48;87;42;64
94;36;87;55
64;87;32;72
79;44;87;63
48;87;40;64
86;32;70;47
36;79;24;48
79;32;74;63
36;79;28;64
79;32;79;55
48;79;48;79
55;64;79;32
56;87;79;32
78;38;68;87
36;91;55;64
95;40;95;36
68;79;48;74
87;48;95;46
64;95;46;64
95;48;95;63
64;95;48;76
95;64;103;44
92;54;64;95
40;95;48;82
95;48;84;87
48;95;79;68
103;48;72;95
40;95;95;48
76;87;64;90
95;64;95;49
76;87;64;84
79;68;95;53
48;91;42;64
95;64;91;63
64;87;40;64
95;40;87;40
56;76;63;36
74;55;52;79
71;40;79;36
48;79;36;52
79;48;64;79
38;64;87;45
64;79;36;79
40;64;79;32
64;63;48;87
42;64;87;79
40;66;87;63
44;95;63;48
95;52;76;79
48;95;87;48
68;95;52;78
87;68;95;59
68;95;48;72
95;48;94;79
52;68;95;63
64;92;95;52
80;79;64;103
71;84;102;79
64;94;79;64
111;72;103;67
76;95;64;94
63;68;103;71
64;95;48;64
94;40;72;87
48;72;95;53
64;95;40;68
87;40;78;55
52;79;47;64
79;48;70;87
32;76;79;34
52;79;36;72
79;36;79;32
48;74;34;52
79;32;79;20
64;63;32;70
79;32;79;32
76;55;32;64
63;48;79;45
40;64;79;32
70;46;64;79
32;87;32;64
87;36;78;63
40;68;63;40
68;63;32;64
79;32;68;79
32;87;79;38
64;79;40;64
76;79;48;84
79;44;80;95
40;95;61;48
93;38;80;95
48;92;95;48
64;95;48;76
87;72;95;55
64;95;48;64
95;40;95;46
64;87;52;76
95;48;87;46
64;79;38;52
84;32;87;32
64;71;40;64
79;32;85;34
56;71;40;70
79;32;79;32
48;79;32;56
71;36;79;32
52;63;32;64
63;24;71;63
32;79;28;44
56;39;48;79
46;40;79;36
40;76;63;32
79;39;64;63
36;74;79;32
76;45;40;79
32;78;63;32
56;79;34;64
84;38;76;79
36;95;47;64
93;36;72;63
64;95;48;92
95;64;87;64
103;48;95;87
64;111;60;72
98;64;80;87
64;102;56;72
103;54;64;103
63;82;103;79
68;95;64;88
79;64;103;56
72;95;64;95
79;64;95;44
80;79;64;76
95;48;94;55
64;87;53;48
95;40;76;79
36;91;53;40
76;42;64;87
36;74;32;64
79;32;79;39
40;64;76;55
40;79;36;64
79;32;68;34
52;63;32;68
79;32;32;79
32;70;79;32
87;32;64;87
45;72;87;55
64;79;40;78
63;64;95;50
64;95;40;94
63;76;95;95
48;103;63;64
88;57;94;79
64;95;64;98
95;64;103;48
88;87;52;64
90;63;72;95
52;88;79;64
99;52;80;79
64;95;95;56
64;95;48;72
95;64;93;79
64;88;95;48
72;87;52;84
95;48;95;44
76;63;68;79
64;95;48;87
64;95;64;95
40;95;46;76
55;64;63;40
86;32;79;32
68;47;64;55
56;59;48;63
48;79;32;70
47;64;55;64
63;48;79;32
76;37;64;55
64;55;64;63
64;63;52;79
48;91;32;78
47;76;53;64
79;64;79;64
95;52;95;48
84;52;84;63
68;79;64;95
64;103;44;84
63;76;79;68
95;64;79;68
95;64;95;48
102;52;103;48
95;52;95;48
95;52;95;54
76;79;72;79
72;79;48;95
48;95;48;84
61;68;63;64
95;48;95;36
95;40;93;40
76;47;78;36
84;38;68;63
64;63;64;79
48;87;36;87
36;87;32;86
32;87;32;70
63;64;55;44
78;42;48;74
71;32;68;46
48;79;32;68
63;40;79;55
48;79;40;68
63;52;87;47
48;79;36;68
86;32;86;34
52;79;40;64
79;32;79;32
64;63;40;76
79;44;68;79
40;64;79;40
68;55;64;87
38;70;87;36
64;79;40;68
87;52;91;55
64;95;40;64
87;40;76;87
48;95;52;76
95;50;80;79
48;95;87;48
80;79;44;68
95;40;80;79
40;87;44;48
95;64;95;55
64;95;36;87
71;64;91;79
48;95;46;64
95;48;86;79
48;95;40;64
95;40;84;42
56;87;44;48
95;48;85;24
64;79;32;64
85;32;79;38
52;79;36;72
79;32;68;79
55;64;79;36
68;55;48;79
55;64;79;40
93;48;84;71
48;95;40;68
79;52;95;55
64;87;48;76
87;68;95;79
64;95;63;64
94;48;95;48
76;79;64;95
79;82;95;40
90;79;64;101
55;84;111;67
72;95;60;72
103;52;80;87
64;103;55;48
72;95;71;48
80;79;48;64
95;52;78;95
40;87;46;64
87;40;68;63
36;87;36;56
79;38;66;79
40;64;79;32
74;63;40;78
54;56;87;32
64;63;64;79
32;87;39;40
79;32;77;63
40;79;32;48
78;24;68;63
32;79;28;40
70;32;70;39
32;78;39;44
87;48;87;24
68;55;48;87
42;68;87;32
76;59;52;87
63;64;93;63
64;95;52;86
87;64;88;95
63;76;95;63
64;103;79;52
84;79;64;80
95;52;95;46
64;95;64;94
79;84;95;79
64;111;56;72
95;50;82;95
63;94;71;64
103;52;94;95
64;111;54;64
94;50;90;79
52;80;95;54
64;95;54;64
82;63;36;64
87;36;95;32
52;87;32;56
87;64;87;32
64;63;40;68
63;48;79;36
74;63;40;56
77;24;68;63
36;79;29;40
76;20;71;45
44;63;24;48
78;24;79;20
52;63;32;79
47;64;79;32
68;63;48;70
87;40;74;71
36;64;87;36
64;63;64;87
63;64;87;55
48;76;87;40
86;59;64;78
95;48;95;36
76;79;40;72
87;72;95;63
64;95;48;95
63;80;95;62
64;95;55;68
103;48;95;55
68;95;40;80
71;64;95;55
68;95;40;94
46;72;79;40
78;63;52;72
79;48;76;79
36;64;79;36
72;34;64;79
34;74;55;32
74;32;52;79
47;48;79;46
32;56;79;29
36;79;26;48
74;24;56;63
24;64;79;24
68;38;48;77
55;48;79;32
68;32;79;32
64;63;32;64
79;32;85;39
52;79;32;52
82;36;74;38
64;79;48;84
63;70;95;40
64;79;36;64
95;64;95;63
64;95;48;64
95;40;95;50
64;95;36;64
92;48;86;46
64;93;55;48
90;40;84;63
48;68;86;79
48;95;63;48
95;40;95;36
68;63;68;95
55;72;95;40
72;55;52;68
79;48;87;39
64;63;32;48
78;47;32;76
63;64;79;34
64;79;40;64
87;32;86;47
32;56;79;32
48;79;55;40
79;32;87;16
64;47;64;55
32;74;63;24
64;47;48;75
54;64;79;32
68;36;66;55
40;79;42;40
76;32;70;39
52;79;32;56
78;32;64;79
55;52;78;63
40;87;79;36
76;63;64;74
87;48;82;95
62;64;95;54
68;87;64;95
79;68;95;44
80;79;84;79
64;95;52;68
92;48;95;36
72;79;40;72
79;68;95;54
64;79;64;86
79;64;94;54
64;87;48;84
79;68;95;40
82;44;52;87
52;64;63;40
74;55;40;68
63;44;79;32
79;24;64;63
32;79;26;68
63;36;71;63
36;79;59;32
76;55;32;64
79;32;79;32
56;63;32;52
71;24;66;55
32;79;26;48
79;48;79;22
64;63;48;87
63;64;91;62
64;95;40;64
86;40;76;63
44;64;87;55
64;71;48;95
50;82;71;52
95;44;86;47
64;59;48;87
63;80;95;40
76;79;48;95
79;80;95;95
68;72;95;64
92;63;80;95
52;103;69;64
92;50;74;95
69;64;95;40
80;51;68;87
40;95;47;48
78;36;78;32
64;79;40;64
79;48;79;44
48;87;36;78
55;52;79;34
52;63;32;71
55;72;79;32
48;79;32;48
87;32;79;32
64;63;40;79
47;68;79;32
68;63;44;79
39;72;79;48
87;36;79;43
64;63;64;71
52;87;44;87
40;87;47;82
44;74;36;72
63;68;79;64
95;44;80;63
68;63;72;63
64;79;64;95
64;95;64;103
52;101;62;76
95;76;95;64
111;52;106;48
84;79;76;95
64;103;44;94
52;95;61;76
79;80;79;64
95;48;87;79
64;95;40;92
44;84;47;76
63;64;87;40
86;40;72;39
64;63;52;87
36;87;32;79
36;83;55;64
63;64;79;40
87;34;70;47
64;63;48;79
36;79;32;74
43;68;55;64
47;68;63;64
63;64;79;40
87;40;87;34
70;55;64;47
64;63;48;87
48;79;52;79
44;95;36;87
47;84;62;68
87;64;95;64
95;64;95;71
64;95;79;64
103;52;94;87
52;92;79;64
93;55;92;55
68;95;50;64
103;64;95;44
72;95;56;64
92;48;90;46
72;79;48;87
63;68;87;95
47;80;50;64
93;40;84;38
64;79;44;52
79;34;64;79
34;68;79;24
70;47;44;79
32;74;55;32
76;36;68;63
32;79;33;40
64;26;48;63
24;66;20;48
70;20;60;63
20;77;31;32
68;18;52;77
28;64;43;20
71;24;64;63
24;64;63;32
68;34;48;79
34;44;56;79
32;76;79;32
76;55;64;79
36;87;47;52
95;44;64;95
63;76;95;79
52;95;40;68
95;44;95;40
84;79;64;95
40;80;87;40
80;79;64;95
42;84;95;52
76;79;64;95
50;82;95;79
64;103;71;48
103;48;86;87
48;95;40;68
94;40;95;40
72;63;48;66
79;48;87;32
64;63;48;66
79;36;64;79
45;64;79;36
64;45;64;63
32;87;47;36
79;32;74;18
56;63;32;48
70;31;48;79
20;66;63;20
68;30;60;47
32;79;32;44
70;28;68;63
32;79;32;44
70;32;64;47
44;79;32;48
87;40;64;87
36;78;47;44
70;47;56;87
32;79;63;48
92;44;87;39
64;79;44;48
95;40;87;40
86;55;84;59
64;79;64;95
48;89;55;64
95;48;90;61
82;79;64;95
64;95;48;80
95;52;95;44
94;48;84;63
80;63;64;88
40;64;79;44
72;63;40;52
87;48;79;30
64;79;32;44
87;40;79;55
48;79;32;40
79;24;68;79
32;79;63;32
64;34;52;79
43;64;63;32
70;35;54;63
28;40;79;43
40;63;40;78
36;64;63;24
64;55;52;79
38;48;79;46
40;87;79;48
80;63;64;87
63;76;79;42
52;91;36;74
95;64;90;44
64;95;44;68
95;64;94;55
64;95;40;72
95;40;76;63
48;95;46;64
92;44;76;79
40;94;63;64
80;59;78;95
63;76;79;64
95;44;95;40
90;52;72;63
64;71;64;95
48;95;48;95
40;95;40;80
55;74;59;64
79;64;79;64
75;64;79;64
79;64;63;64
79;52;95;42
86;46;74;63
52;79;36;52
79;52;79;63
36;87;55;40
87;40;79;63
36;70;61;44
70;55;52;79
63;64;79;36
68;39;64;87
47;64;95;32
64;87;47;64
87;61;64;80
63;64;87;38
68;87;48;68
91;40;80;44
64;87;44;76
95;48;86;43
64;87;48;90
79;64;94;95
48;95;48;64
90;48;95;40
72;79;40;80
79;48;95;36
68;59;32;72
79;48;95;36
66;79;32;68
85;36;87;32
64;79;36;79
63;64;87;32
72;32;74;63
32;76;79;32
70;43;48;70
63;48;87;35
52;63;32;52
78;32;79;33
56;63;40;64
63;56;76;55
48;79;63;48
76;36;68;45
48;79;32;48
87;40;79;28
48;79;63;32
85;32;70;79
40;78;91;63
64;79;68;63
64;95;55;64
103;48;92;71
64;95;48;64
95;64;95;63
64;95;48;95
79;88;79;64
111;52;95;87
64;102;111;64
80;95;64;80
99;64;94;52
72;95;64;84
95;64;95;71
64;95;59;64
84;63;72;95
40;86;79;44
64;95;48;76
87;48;95;36
68;63;36;52
79;47;48;64
87;32;68;47
48;79;47;40
71;32;66;43
40;79;24;56
79;36;71;39
40;79;24;52
71;24;64;63
32;79;24;56
75;32;72;47
36;79;39;40
87;40;79;46
44;79;32;64
79;40;79;63
40;72;79;32
68;47;32;85
63;56;63;32
64;55;72;63
48;95;40;68
95;64;87;42
64;95;44;64
90;44;64;95
48;80;47;64
94;40;86;47
64;95;48;89
79;64;95;40
68;87;36;80
95;48;91;71
48;84;63;48
95;40;81;63
64;87;40;79
79;44;95;40
72;63;32;68
79;32;87;32
64;47;56;79
46;64;79;39
48;63;32;66
47;52;74;63
32;79;42;32
64;39;56;31
40;71;32;62
63;48;75;39
48;63;24;64
63;48;79;55
48;79;32;48
87;32;56;63
38;64;63;36
87;40;64;63
40;87;38;48
95;44;86;61
52;90;63;48
68;95;59;48
84;79;48;72
95;64;95;79
64;103;44;80
94;50;88;79
52;84;79;64
84;55;84;79
64;95;40;86
79;72;95;59
64;95;48;88
87;48;95;48
76;79;64;92
71;64;93;54
64;87;40;80
87;40;78;63
52;87;32;85
63;64;72;79
32;84;38;64
79;38;70;43
40;79;55;44
95;48;79;79
36;87;42;52
79;36;70;63
32;86;26;52
87;44;77;38
40;79;32;68
79;40;76;63
32;64;79;32
64;63;74;36
52;79;36;52
79;38;85;34
64;79;40;72
79;64;95;36
74;63;64;91
63;68;95;40
72;87;64;95
62;80;94;54
64;103;48;68
95;52;84;95
52;103;48;72
92;55;84;59
64;95;48;64
94;46;76;95
48;80;79;40
72;63;64;95
59;72;95;40
72;63;68;63
48;87;32;64
87;32;87;32
64;79;32;64
87;48;79;43
52;79;32;48
79;32;64;71
32;79;38;40
79;24;64;47
32;72;43;32
71;32;60;63
32;79;32;40
66;39;78;30
52;63;24;79
39;52;77;79
32;84;47;44
87;36;64;87
32;74;36;40
72;34;68;46
40;87;63;32
64;55;48;87
47;64;63;48
78;47;74;55
64;87;36;64
84;38;84;79
48;80;79;48
82;54;80;63
64;95;48;68
92;40;95;46
68;87;32;87
79;68;95;55
64;95;40;64
95;40;80;55
52;95;32;64
85;36;64;87
63;64;87;36
64;79;32;68
63;48;79;32
76;47;52;79
32;74;38;40
74;24;76;24
68;38;64;35
60;47;56;55
44;63;48;63
32;79;24;68
39;64;37;52
79;40;79;32
70;39;74;34
64;47;64;32
64;63;64;63
48;79;48;63
48;87;36;84
38;78;46;76
61;72;59;64
79;64;95;48
95;48;95;44
80;55;72;79
64;95;48;84
78;80;87;72
95;64;103;79
92;66;84;78
64;95;64;109
80;77;86;79
64;95;64;103
52;103;48;95
48;86;79;64
95;48;95;48
82;63;76;79
64;87;64;95
64;95;40;78
47;82;59;68
87;40;95;48
95;48;95;36
76;63;48;79
40;95;36;74
32;79;32;70
32;78;34;70
47;48;63;64
63;52;79;48
79;40;79;36
85;32;79;32
64;63;36;79
47;66;87;32
48;87;36;64
95;48;95;40
64;79;48;92
52;74;71;40
72;75;36;52
84;36;64;91
63;64;95;36
84;40;72;94
40;93;59;48
95;48;92;79
48;95;48;90
95;64;95;63
64;95;64;84
95;64;95;79
52;80;95;48
76;79;52;89
95;64;87;48
72;71;64;94
55;80;79;40
76;53;72;63
48;79;36;64
95;32;74;71
38;68;79;38
52;71;40;79
79;48;79;32
64;63;36;87
32;72;32;40
87;32;71;63
36;64;79;32
64;47;52;79
63;48;87;32
70;47;64;63
32;79;32;52
95;40;70;79
79;40;87;51
44;87;71;40
92;44;64;91
71;68;95;40
68;95;40;95
63;76;95;40
72;79;48;64
90;40;76;63
64;95;50;64
92;52;82;63
64;95;48;72
94;40;95;51
64;87;40;76
87;48;93;63
52;95;48;86
71;64;95;44
64;87;32;64
82;36;64;87
32;72;43;48
77;32;70;63
32;66;44;32
64;39;56;47
36;79;24;64
63;32;60;63
32;77;24;24
71;24;56;47
32;71;46;24
64;47;48;79
24;64;63;47
36;78;79;32
64;63;36;68
55;40;79;39
64;79;36;64
79;32;65;79
32;79;47;52
95;40;66;87
79;48;87;63
64;79;48;92
95;64;103;40
80;63;68;95
48;92;48;64
84;48;68;95
40;84;79;36
76;59;76;62
64;91;55;64
111;52;86;55
48;95;40;72
95;64;95;44
68;79;48;94
55;68;95;47
64;87;32;86
63;64;87;63
40;95;32;68
95;64;78;84
79;48;87;32
68;47;64;63
40;79;46;40
68;39;56;63
32;70;28;40
68;24;48;71
55;48;79;39
36;79;63;32
76;39;52;79
32;79;32;70
79;32;79;37
64;63;64;63
48;87;32;64
86;36;76;79
32;86;79;40
76;53;72;71
40;87;51;40
76;55;68;79
40;78;79;40
72;53;72;79
48;90;40;64
84;46;72;63
64;95;48;64
87;46;80;79
48;94;52;52
103;40;95;47
64;87;48;95
52;76;95;53
64;95;40;64
86;38;64;95
63;48;74;79
40;87;48;76
55;48;91;55
48;79;64;79
32;79;32;56
87;36;79;39
52;79;24;52
79;36;76;63
36;71;55;32
64;47;48;79
20;71;47;40
87;32;64;79
28;76;47;64
87;48;79;32
82;47;64;79
32;87;36;64
95;32;87;34
64;63;48;87
55;64;79;64
95;40;86;79
48;78;95;52
64;95;64;84
95;48;80;79
52;103;79;64
84;79;64;103
79;80;95;64
109;52;103;75
72;95;64;111
59;72;95;52
72;87;64;103
50;76;76;95
71;80;95;50
72;63;48;64
87;40;87;44
64;79;32;52
78;39;64;79
40;79;32;48
70;45;64;63
40;79;32;56
79;36;86;47
52;63;20;64
63;40;79;32
32;63;22;48
79;48;79;24
64;47;48;79
32;79;32;48
79;32;64;79
36;68;79;32
64;79;36;64
87;52;79;79
40;87;39;64
82;38;87;55
64;79;40;76
87;40;87;55
40;94;40;64
95;64;95;40
68;79;36;93
60;72;95;54
72;95;64;76
87;64;95;44
94;55;76;95
62;84;103;44
68;95;44;64
86;59;72;95
42;72;63;40
84;36;64;87
32;68;63;48
70;55;64;63
40;64;47;48
95;40;79;63
40;87;36;79
24;79;63;36
87;32;79;63
48;79;40;79
47;64;31;48
68;31;64;47
40;79;24;48
68;32;56;63
32;79;28;32
60;34;70;46
52;63;48;79
40;79;40;79
36;87;32;84
38;78;46;64
79;64;79;44
87;48;95;40
92;52;72;79
64;95;64;95
64;103;52;92
79;80;79;68
95;54;95;66
72;87;72;95
52;95;48;84
79;72;95;64
95;64;95;48
102;48;95;48
92;44;76;63
64;79;68;79
64;95;72;87
48;95;42;92
44;84;63;64
87;64;95;53
76;55;72;79
64;79;64;87
48;90;42;72
71;64;79;64
79;64;95;42
64;63;64;63
40;79;40;79
47;70;55;64
79;52;79;32
79;32;76;39
56;63;40;87
32;79;34;68
46;64;63;52
79;64;79;52
87;64;79;52
95;48;95;40
84;40;76;63
52;95;48;95
41;64;95;40
84;42;64;87
36;95;36;72
95;64;84;90
95;52;95;54
68;95;72;95
48;93;70;64
84;55;88;79
48;95;58;48
87;54;68;87
48;93;46;52
78;40;64;79
87;36;87;55
40;87;52;87
32;79;42;64
87;48;87;63
40;87;55;40
70;47;48;79
47;56;79;32
64;55;48;94
25;85;55;40
79;47;56;79
38;64;55;32
64;46;32;79
24;68;63;32
64;55;64;63
32;79;28;56
76;32;68;63
32;79;47;40
68;47;64;63
36;74;32;36
66;36;79;55
48;87;38;52
79;40;64;79
79;32;87;36
64;63;64;95
71;64;95;63
64;79;72;95
48;84;79;48
76;63;76;95
48;95;44;72
103;52;92;87
48;94;63;48
80;63;72;79
40;95;40;64
95;64;95;40
72;63;40;72
79;48;91;63
36;87;63;40
74;55;56;95
39;72;55;40
68;36;64;79
54;52;79;36
48;79;32;48
70;46;48;79
16;78;55;32
79;23;64;47
36;63;24;56
79;20;71;39
48;55;40;76
47;52;63;32
52;71;40;79
47;64;79;32
68;63;48;87
39;48;95;55
48;93;38;80
95;48;68;79
48;95;42;86
95;40;109;79
64;103;95;64
86;95;52;76
98;56;80;92
111;64;111;64
80;79;72;103
63;80;95;52
68;95;48;84
95;64;95;48
68;79;64;103
48;87;79;44
72;63;68;62
40;87;63;40
74;50;64;87
79;40;95;32
80;62;64;79
40;79;55;36
64;61;52;79
63;40;79;32
64;46;52;79
32;68;63;32
56;63;40;79
47;52;87;32
44;79;32;52
87;24;74;28
48;63;56;79
36;79;46;40
74;47;64;63
48;79;47;40
68;53;52;79
32;72;55;48
95;32;93;36
64;79;32;68
87;32;68;63
36;79;79;36
72;54;64;87
32;84;51;52
80;44;52;93
63;76;42;68
95;48;95;79
40;87;55;48
78;61;64;95
36;95;71;64
74;44;86;79
48;87;55;64
82;50;64;87
40;87;47;52
95;32;68;47
48;79;32;72
79;48;95;46
48;87;40;52
76;39;64;79
32;76;47;32
64;45;56;79
47;48;79;39
52;53;52;79
32;78;63;36
87;32;70;63
32;79;47;48
87;32;52;87
71;40;87;63
40;87;52;92
54;68;63;48
78;52;64;79
52;95;44;72
95;40;84;95
48;90;79;52
86;71;80;95
48;84;95;48
72;103;48;98
75;64;101;79
64;103;64;103
60;94;95;58
72;95;80;111
48;101;63;64
80;71;68;95
48;95;50;64
80;55;68;79
48;95;40;76
95;40;70;95
32;86;55;48
83;32;70;63
40;87;32;79
47;48;79;55
48;79;48;79
36;64;79;32
52;79;32;44
87;32;64;63
42;56;55;32
56;45;52;47
36;79;24;64
79;32;64;63
34;71;63;32
79;32;48;79
39;70;55;40
68;47;64;63
36;87;36;64
95;48;68;79
36;87;44;68
87;40;91;95
52;52;90;79
64;95;64;103
71;72;95;59
72;87;72;95
64;103;63;64
84;61;80;95
66;76;79;64
84;64;68;95
71;68;95;95
64;103;64;95
63;76;95;50
80;71;64;95
40;92;55;64
84;44;68;79
36;94;32;52
74;43;64;79
36;87;42;44
78;32;48;79
39;64;63;24
56;55;48;79
32;79;32;40
79;24;44;79
20;58;63;26
40;63;40;79
79;32;79;32
74;32;64;63
36;79;34;52
79;32;56;87
32;68;55;36
92;32;87;36
52;79;40;68
79;36;78;87
48;95;63;52
86;55;72;79
48;95;63;64
76;63;68;95
63;76;95;48
94;54;72;95
58;76;95;79
64;95;69;84
111;48;94;95
64;95;64;94
95;64;101;95
64;92;95;48
88;79;68;95
69;72;95;50
80;79;48;94
87;64;95;63
64;95;48;72
95;40;93;55
64;79;40;87
63;64;87;32
80;63;64;79
40;79;48;84
54;64;87;32
56;59;40;70
79;40;79;79
40;64;63;32
87;47;64;63
40;79;48;95
32;78;59;48
76;53;68;63
48;95;47;80
63;64;95;51
64;95;40;80
95;48;84;63
64;95;48;72
95;40;87;79
64;95;52;80
95;48;76;95
58;72;95;54
80;79;68;103
52;107;52;103
58;84;79;72
95;72;87;64
103;64;103;64
95;64;103;52
82;63;72;79
64;79;64;95
48;85;44;95
44;94;46;84
52;68;63;64
63;64;79;52
87;40;87;44
92;36;84;32
79;24;84;32
64;32;64;20
71;20;60;22
56;39;52;39
48;39;56;47
32;79;32;79
32;71;28;76
26;79;32;76
38;64;63;64
79;40;87;34
87;32;87;36
72;63;66;79
48;87;40;86
55;76;63;68
95;48;95;40
94;46;86;71
64;79;64;95
64;95;64;103
55;80;71;68
95;48;92;59
68;87;64;95
48;103;50;84
63;72;79;64
95;52;103;48
86;47;88;55
68;61;68;63
64;87;40;87
71;40;87;47
48;63;48;87
46;64;87;32
76;34;74;55
48;79;32;79
55;48;87;39
48;79;40;87
32;70;36;52
75;36;52;79
32;79;36;70
63;48;79;41
64;63;48;76
87;32;64;63
40;79;52;79
32;79;61;36
64;63;48;76
79;48;94;63
64;79;40;86
95;40;92;63
48;87;64;95
40;78;95;61
64;95;64;88
87;64;95;95
48;103;50;88
111;64;111;77
64;95;72;111
48;108;63;84
103;48;95;95
52;111;52;80
111;64;94;60
64;95;48;80
95;48;76;87
52;80;87;48
92;36;82;95
40;85;59;64
80;38;64;83
87;48;87;36
52;55;64;79
36;87;39;48
70;36;64;63
32;79;47;32
74;16;48;63
32;79;24;64
63;32;60;63
32;79;39;64
63;32;72;55
40;87;47;68
79;36;68;86
46;64;71;36
79;32;64;79
40;87;63;48
95;32;80;63
40;87;47;64
87;36;78;71
36;92;71;48
95;32;72;95
44;90;71;64
92;36;92;79
48;95;48;95
95;48;86;79
64;103;48;64
95;40;72;79
52;90;79;48
94;38;68;79
48;93;55;36
64;63;64;95
42;78;55;36
64;55;64;87
63;52;95;47
52;63;52;87
32;79;55;68
71;36;64;79
32;64;79;36
44;71;48;79
32;70;55;32
76;26;40;76
79;32;64;79
47;52;71;32
64;47;32;66
63;40;79;38
48;79;32;74
79;32;64;63
36;87;71;34
64;63;48;87
79;40;95;47
64;55;68;87
40;87;55;52
76;55;68;95
47;72;79;40
64;79;72;79
48;92;95;48
72;71;72;79
48;95;44;90
71;48;95;79
64;95;48;68
92;47;72;95
48;95;63;48
78;71;64;87
40;84;63;40
64;79;48;87
46;66;54;48
68;55;64;79
32;72;63;40
56;47;48;79
26;64;63;48
87;20;64;47
40;79;35;64
79;24;48;79
20;64;47;32
64;20;52;79
36;66;39;36
64;39;48;63
32;79;24;52
68;27;40;63
20;66;47;24
52;47;40;64
63;52;63;32
52;63;32;74
79;48;79;34
52;63;48;95
32;78;63;44
52;87;36;64
95;36;79;55
64;79;64;87
48;95;50;72
95;40;84;95
71;72;95;71
64;95;64;100
71;68;95;50
72;79;64;86
95;48;84;87
50;76;95;48
92;63;64;95
36;87;40;80
95;40;87;63
48;87;40;76
87;40;87;38
64;63;40;85
47;52;79;34
52;63;40;68
79;36;79;63
32;56;79;36
52;63;32;79
30;58;63;40
87;32;52;63
32;79;32;72
55;68;43;66
71;32;56;79
26;64;79;32
52;63;48;87
47;64;95;55
48;79;48;95
40;74;71;36
64;79;64;91
63;48;95;71
48;95;64;86
103;48;95;63
64;95;64;95
48;90;87;48
72;71;64;95
44;84;79;64
111;48;72;79
52;95;63;76
95;48;64;95
63;72;79;40
64;71;64;95
36;87;63;40
87;37;68;87
63;48;87;63
40;87;63;52
87;51;76;63
44;87;32;82
46;56;87;32
74;55;64;79
40;87;32;79
39;64;79;36
70;55;48;87
32;79;55;52
83;39;71;63
48;79;40;78
79;56;87;55
40;87;50;36
68;79;32;68
87;32;72;79
32;87;63;48
68;63;64;95
58;64;95;79
44;86;95;48
68;95;79;64
84;63;72;95
64;95;48;111
48;103;58;80
95;48;102;53
90;79;64;111
64;111;64;109
48;95;69;72
102;71;82;87
64;95;48;95
63;76;95;64
95;48;80;79
48;95;63;40
64;79;48;87
36;79;63;48
68;63;64;70
95;34;87;63
48;87;48;95
63;64;80;95
40;64;87;71
40;87;36;48
87;32;64;63
64;79;36;87
32;76;63;44
87;32;87;32
76;55;64;79
48;87;36;68
63;56;87;46
79;79;64;87
48;95;48;95
48;95;40;95
62;84;79;48
64;95;63;64
76;63;64;95
48;95;79;64
80;71;84;95
63;88;95;64
88;62;80;95
75;76;95;56
72;87;64;111
87;64;103;79
64;100;54;86
87;64;103;48
91;71;72;87
64;95;44;95
44;91;63;72
95;40;80;63
72;87;48;95
44;95;36;94
36;86;63;52
87;36;64;79
64;79;36;87
40;76;44;68
63;64;63;52
79;44;79;36
87;32;78;38
64;55;64;55
48;79;52;47
64;55;52;79
36;87;32;87
63;68;63;48
79;48;91;40
92;36;82;40
68;55;64;63
44;95;40;93
44;72;71;48
95;48;95;48
76;63;72;79
64;95;44;86
63;72;71;76
71;76;79;64
95;64;95;77
64;111;64;90
87;64;80;95
64;103;69;72
109;48;95;95
48;103;52;68
103;48;84;79
64;95;48;72
79;68;95;48
94;61;72;79
40;95;44;84
63;64;95;32
91;32;72;63
56;79;40;95
32;79;47;64
87;32;76;63
56;79;40;87
40;95;32;77
55;64;71;48
79;47;64;63
32;79;43;32
64;63;32;79
39;64;79;34
48;79;55;64
95;40;76;79
40;95;63;64
80;63;64;95
40;82;63;64
95;40;72;95
40;95;79;64
88;48;68;79
72;87;48;95
40;95;48;72
95;52;95;49
72;95;64;111
48;103;54;80
79;72;95;48
94;63;64;95
48;95;40;90
55;72;95;48
95;71;48;76
71;52;95;63
52;87;44;70
87;40;87;46
52;79;64;87
40;86;63;36
68;63;48;68
87;32;74;63
36;79;48;79
38;79;47;64
87;32;79;46
52;79;32;86
24;76;42;64
95;32;70;63
48;79;36;95
40;91;32;86
34;78;55;64
95;36;76;79
64;87;64;95
48;95;44;93
51;64;78;63
64;95;48;95
55;82;63;72
103;50;80;95
52;92;55;64
88;71;72;95
48;103;52;103
62;76;95;48
88;63;80;87
64;103;52;64
78;79;64;95
64;95;42;95
48;95;53;80
79;52;95;61
68;87;48;95
48;95;47;84
46;74;79;44
78;63;52;79
44;87;40;95
48;87;32;87
47;32;52;95
40;71;79;40
84;32;70;55
36;87;32;48
85;24;56;63
32;79;28;48
79;32;68;55
36;93;32;56
79;32;48;63
32;79;79;48
91;32;76;55
68;79;64;95
36;86;54;68
95;40;103;46
72;63;72;79
68;95;40;103
40;92;71;64
95;48;92;63
64;95;48;103
64;103;64;95
75;64;102;95
64;111;95;64
111;64;76;95
64;102;95;56
76;79;64;103
79;64;103;63
68;79;64;111
48;95;79;64
76;71;64;95
40;95;63;64
95;40;76;63
68;87;48;87
40;72;63;48
84;55;64;63
40;87;32;87
32;76;47;64
55;64;79;36
76;47;64;79
48;79;36;87
38;74;79;64
79;42;64;79
40;94;71;44
68;55;40;79
79;64;95;48
68;63;48;95
40;95;53;48
64;79;64;95
63;68;95;50
64;79;64;95
55;88;79;64
95;52;84;70
72;95;52;94
79;72;95;52
92;95;68;103
64;111;48;111
64;111;64;111
64;100;71;80
111;48;92;95
64;111;48;100
59;92;71;68
95;44;76;79
48;95;44;64
93;36;64;70
94;51;91;79
48;91;44;80
79;68;95;40
80;46;64;79
40;95;63;40
64;63;64;95
55;76;79;34
64;79;44;95
48;95;32;76
79;56;87;38
84;55;64;79
52;95;36;93
36;93;44;78
63;64;87;53
76;79;64;95
64;95;48;103
48;95;52;84
95;48;64;87
63;72;87;52
68;95;48;95
63;68;79;48
64;87;48;95
40;84;63;52
94;55;82;71
64;95;79;64
102;48;90;111
79;76;111;79
64;102;63;80
111;64;84;79
64;103;48;94
62;86;95;64
103;48;72;95
64;95;64;95
40;95;44;80
62;64;95;40
87;36;70;63
64;79;40;95
36;78;95;64
95;42;76;95
34;86;42;72
95;52;87;47
64;87;52;95
36;86;79;40
86;36;66;79
48;95;32;76
79;48;70;79
32;76;63;48
95;32;68;79
40;95;40;52
87;36;70;79
44;95;36;64
95;36;68;87
36;82;79;48
66;63;64;95
51;87;79;64
80;71;52;72
95;52;76;95
48;95;48;95
54;86;54;76
79;64;95;48
95;48;80;59
76;55;72;59
72;63;72;63
52;79;64;95
40;95;40;84
63;68;63;68
71;64;77;64
95;48;95;40
72;71;52;87
48;79;48;79
36;87;34;72
79;40;87;32
74;39;64;63
48;71;48;79
45;66;63;64
63;52;87;36
85;32;79;32
79;32;79;32
79;24;78;39
64;47;64;55
64;71;56;79
40;87;36;79
53;76;63;64
79;64;87;64
95;40;95;44
76;61;68;71
64;87;64;95
48;95;48;84
63;80;79;80
95;64;95;64
88;79;80;87
68;103;64;111
64;107;64;108
79;72;95;72
95;64;95;64
110;48;103;64
109;52;103;48
95;44;86;63
64;95;48;84
95;48;68;71
40;95;79;64
84;47;72;95
59;84;95;60
64;79;48;95
36;76;95;46
64;79;40;87
79;48;91;63
48;79;40;64
95;40;76;87
36;85;32;83
63;52;95;46
64;87;48;84
87;48;95;46
64;95;48;90
71;64;103;40
84;42;86;87
40;87;87;40
64;87;48;95
95;48;92;87
64;95;64;102
79;72;103;79
72;103;64;84
95;64;109;95
64;111;64;110
71;88;103;52
84;79;76;84
111;64;100;111
64;111;52;96
87;72;95;60
72;95;48;84
108;69;98;95
64;95;64;111
48;88;79;64
88;87;64;103
79;84;95;52
64;79;48;76
95;44;95;63
52;95;64;95
40;80;95;55
52;79;48;64
87;45;87;63
36;79;40;87
32;70;63;32
52;79;40;79
42;64;79;38
52;87;36;87
63;48;87;32
72;45;40;52
79;32;87;32
64;63;48;64
79;40;87;79
32;87;34;84
71;52;94;79
44;95;42;84
95;48;94;95
48;103;64;111
48;102;79;72
103;48;80;86
103;52;90;75
48;101;48;92
79;64;95;79
64;95;68;103
79;68;102;87
64;95;64;103
87;64;95;95
48;95;48;72
95;50;78;95
71;64;92;63
52;95;48;86
79;72;95;47
64;95;48;95
61;64;84;71
48;95;44;80
79;64;95;40
76;79;52;84
63;64;95;64
95;44;92;63
48;95;40;84
79;74;63;44
86;36;64;95
71;64;95;79
52;95;48;95
71;72;95;48
80;63;76;103
40;93;95;64
92;52;72;95
48;95;52;72
92;44;94;63
68;95;64;95
59;94;79;76
103;52;84;79
72;79;64;84
103;61;80;95
64;103;48;103
59;80;95;48
88;48;52;64
93;55;68;95
46;78;87;48
84;79;74;95
48;72;87;64
95;40;86;51
64;79;48;87
55;40;78;87
44;78;40;52
86;32;72;63
40;79;32;64
79;36;79;63
32;79;32;76
79;32;87;47
52;63;40;87
54;64;79;40
86;32;52;63
32;87;79;32
72;46;40;87
59;64;95;51
52;95;40;95
71;76;79;64
95;44;80;95
55;92;95;64
94;53;64;95
48;101;87;48
72;79;48;88
71;68;103;70
64;95;52;101
63;72;95;55
80;79;64;95
79;64;111;58
84;79;64;103
48;92;95;64
80;79;64;103
44;76;95;52
88;47;64;95
47;74;95;46
64;87;44;64
84;63;64;95
36;87;36;84
95;44;68;93
79;48;91;63
48;95;55;76
79;64;93;63
48;95;63;64
91;36;82;63
40;95;42;72
79;48;64;87
55;64;95;63
52;79;40;95
38;68;55;40
68;71;48;95
44;66;95;63
64;95;64;95
54;94;63;72
95;48;88;95
44;92;79;64
92;48;64;95
54;80;95;63
64;95;64;111
68;84;103;64
92;71;80;95
71;88;111;71
64;95;64;107
95;64;111;87
64;111;64;111
79;96;79;84
111;64;106;95
64;103;64;76
109;48;100;52
80;95;72;107
48;95;59;68
95;40;82;79
40;95;48;90
60;64;79;40
64;79;40;64
86;47;64;87
32;79;32;79
63;48;87;47
44;79;34;64
79;32;70;87
32;78;79;63
48;87;63;64
95;44;74;95
63;68;95;48
68;95;42;80
95;64;95;44
84;51;64;95
42;84;79;64
86;54;64;95
48;86;71;48
80;79;64;95
66;76;95;52
80;71;64;95
87;64;107;87
64;111;64;109
95;96;103;79
72;111;64;80
107;66;80;111
48;103;48;92
103;59;80;111
50;92;75;80
95;64;95;48
94;46;80;63
76;63;64;87
48;95;40;87
71;64;79;64
87;64;95;48
95;48;95;40
94;40;86;47
64;63;52;87
36;95;32;93
32;79;34;64
63;54;63;64
63;64;79;48
95;40;91;32
87;36;82;36
76;37;64;63
48;79;40;87
52;70;79;64
95;64;95;48
95;44;90;44
84;55;68;79
64;79;64;95
64;95;52;95
54;92;62;88
79;80;79;64
103;64;103;48
92;60;86;79
64;95;64;95
64;111;52;101
79;76;107;52
101;48;95;61
76;79;68;87
64;95;52;95
64;95;64;95
48;92;48;84
79;64;95;48
95;44;87;63
64;79;64;95
48;95;44;84
63;64;87;40
95;36;87;79
44;95;48;95
63;52;82;47
40;87;40;76
87;40;87;79
36;95;36;87
47;64;87;71
36;95;50;64
94;63;68;95
40;95;40;88
95;48;76;95
71;72;95;71
64;103;48;88
95;64;92;79
64;111;52;92
95;64;102;54
84;95;80;111
54;107;52;92
111;66;84;111
52;111;52;96
111;64;92;95
64;111;64;80
111;64;88;95
65;94;52;72
102;63;72;103
52;95;48;80
87;80;95;40
84;55;68;95
36;87;95;48
80;55;52;68
87;36;95;40
70;63;40;56
79;43;64;79
32;87;36;64
79;55;48;79
63;56;87;36
78;47;70;79
32;79;47;64
79;40;95;52
64;79;40;72
87;38;84;63
64;95;64;87
54;82;79;48
64;95;48;95
63;68;95;60
68;79;64;95
60;84;95;79
68;95;48;88
87;79;72;103
79;72;111;68
76;95;64;92
95;80;111;72
111;64;96;111
64;107;64;80
111;75;80;95
64;103;64;88
107;64;92;95
52;110;54;88
95;52;95;95
52;95;64;111
62;94;95;52
84;55;76;95
48;95;48;90
63;64;95;32
76;71;48;87
43;78;55;64
87;51;64;95
32;95;40;95
51;64;87;40
76;47;32;78
47;52;79;32
72;36;40;79
55;64;79;48
87;32;76;87
63;72;87;36
84;36;72;87
32;76;79;48
80;44;76;63
48;95;40;93
53;76;71;64
95;64;95;44
76;63;72;95
54;80;95;48
88;63;52;68
95;55;95;52
64;95;64;95
79;72;95;52
94;52;76;95
48;90;95;69
76;87;64;64
95;71;80;95
44;103;54;64
92;63;76;95
48;95;40;95
52;76;87;46
64;87;52;80
95;48;95;79
48;95;40;80
95;40;95;55
48;95;40;84
63;64;95;63
40;95;48;95
55;76;71;64
95;52;95;54
64;87;48;87
59;68;95;48
70;95;48;86
95;48;87;44
68;87;48;95
42;92;63;48
80;71;48;72
95;40;68;95
63;76;95;71
52;95;48;68
95;48;103;48
64;95;64;88
71;68;93;87
48;95;48;90
79;64;103;71
64;103;50;108
56;84;111;71
64;111;64;111
68;84;95;71
64;107;56;64
88;63;74;95
54;86;79;48
84;71;68;95
63;84;61;64
95;47;76;95
79;72;95;52
95;48;68;86
79;48;95;32
68;79;48;93
41;76;79;52
95;40;74;79
32;87;32;78
63;40;87;47
40;87;36;87
47;64;63;32
56;71;36;72
79;40;79;63
32;91;47;68
79;48;95;47
52;86;63;40
82;47;68;79
36;95;40;82
63;64;94;40
76;63;64;93
55;68;95;51
64;95;48;92
71;64;103;71
64;103;64;111
60;88;95;64
84;87;64;98
87;64;111;70
68;100;87;84
111;72;103;64
76;95;64;98
95;64;103;52
86;71;72;84
95;48;86;79
48;95;44;68
95;40;82;95
36;95;36;79
79;48;87;71
44;95;44;72
95;52;95;63
48;87;55;48
82;63;76;87
32;87;63;32
74;63;64;86
79;64;79;36
68;59;64;95
38;72;79;52
94;32;76;95
32;94;32;87
63;64;87;36
68;63;52;92
47;68;95;71
44;84;79;52
103;40;88;79
36;95;40;88
79;64;95;63
64;95;48;88
87;64;92;95
67;92;95;64
88;95;94;111
64;111;64;84
111;70;84;111
64;111;64;102
65;84;87;56
80;87;64;111
66;76;111;71
64;103;48;92
63;72;87;54
64;95;64;86
79;64;92;95
40;95;40;84
79;64;95;63
48;95;40;76
87;36;95;55
48;95;32;80
79;48;78;95
32;95;44;64
79;55;64;79
39;72;79;32
76;63;52;87
44;72;40;64
79;40;91;63
44;95;40;76
93;63;64;87
48;80;79;64
92;71;64;95
48;103;40;94
71;68;95;48
84;63;68;95
50;92;95;48
80;71;48;95
71;64;94;79
68;95;64;108
79;82;111;48
84;66;84;95
64;111;52;95
95;80;79;64
98;79;80;92
95;48;95;95
48;98;69;64
95;48;92;52
72;63;64;79
64;79;64;92
48;80;47;64
79;48;95;36
92;32;87;32
83;32;78;20
79;32;79;39
70;39;64;55
44;63;48;79
32;79;39;64
79;48;79;32
79;32;76;32
79;32;70;55
40;87;32;87
36;74;45;64
63;64;71;64
63;64;79;64
95;48;93;32
84;38;76;47
64;63;70;59
64;63;64;63
64;87;64;95
48;87;54;72
79;64;95;48
95;48;95;36
95;42;94;71
64;95;48;95
55;74;87;64
95;64;95;40
95;44;90;38
90;46;82;55
78;63;72;79
32;80;36;87
39;76;43;48
79;32;68;87
32;87;55;48
78;45;64;79
55;64;79;40
86;38;87;63
36;87;42;64
63;52;87;36
44;79;40;32
76;47;50;63
40;79;20;76
47;48;63;47
32;79;36;36
72;47;74;79
32;87;46;40
78;63;64;79
36;95;36;79
63;64;87;42
64;79;40;87
55;68;95;55
64;87;48;95
62;80;95;64
100;48;88;95
71;80;103;71
76;79;72;95
71;72;87;64
86;75;64;64
94;79;68;103
95;76;111;64
92;75;72;95
48;100;40;72
94;63;64;87
40;95;40;78
87;48;74;79
48;95;36;84
63;52;95;63
48;95;48;95
36;76;95;47
52;87;40;84
63;48;87;32
79;34;66;55
48;79;32;79
63;64;79;55
40;85;47;48
87;32;64;63
32;78;63;32
76;39;36;79
36;64;87;55
40;87;47;48
79;63;64;87
32;86;63;64
94;32;95;36
64;79;48;84
87;48;95;79
52;95;48;72
95;71;64;95
71;72;95;64
92;87;64;111
48;107;48;88
95;58;95;79
64;111;48;111
63;84;95;52
80;79;40;103
63;72;95;63
72;79;64;78
95;54;84;87
44;95;59;64
87;63;64;95
36;93;32;90
63;64;95;71
44;87;48;48
76;63;48;87
47;68;45;64
79;24;79;79
32;87;47;40
75;47;64;79
38;64;87;32
64;63;64;95
63;64;95;32
68;79;36;78
63;64;63;36
64;79;64;95
38;91;36;78
79;52;95;71
48;95;36;95
59;72;95;40
84;54;68;95
40;95;40;64
87;44;76;79
48;91;95;64
80;79;48;103
52;76;79;52
80;79;64;95
63;72;95;79
64;111;56;92
87;68;103;95
64;111;48;110
79;84;95;64
92;69;80;95
60;80;111;52
64;95;40;72
94;63;70;95
48;87;55;68
95;52;87;54
52;87;32;91
55;64;87;54
64;79;40;40
72;63;48;79
34;68;79;32
52;79;36;72
79;48;63;32
64;79;48;87
55;64;87;48
95;48;95;55
64;95;44;78
79;48;92;79
44;95;36;87
79;68;95;55
64;95;52;95
71;68;95;60
64;95;48;103
79;80;95;48
86;55;80;95
52;88;95;48
86;63;76;95
67;72;95;64
102;58;64;95
95;72;111;60
72;95;64;100
79;64;95;77
64;111;52;94
71;72;95;79
52;103;48;86
79;64;103;77
52;95;40;78
95;48;68;95
55;78;47;76
79;48;95;63
40;95;32;95
63;64;79;40
91;36;78;63
36;79;79;44
82;34;70;43
48;79;32;79
38;64;43;64
79;36;79;79
36;79;34;72
87;40;74;79
32;78;24;52
87;32;64;71
32;84;59;64
95;48;76;87
40;86;55;48
76;63;64;76
87;40;95;63
48;95;54;64
92;44;64;95
47;76;95;40
76;61;56;95
47;86;95;59
48;95;64;86
95;64;111;48
72;87;64;98
71;68;103;52
80;79;64;64
86;55;80;63
64;79;40;80
79;48;95;71
48;95;44;84
63;48;87;71
46;76;39;64
87;36;79;79
36;95;32;74
87;54;52;79
36;76;47;32
72;63;64;87
38;70;46;40
76;38;70;87
46;66;43;64
79;36;79;34
64;55;32;79
79;64;95;54
48;95;48;64
95;40;94;54
64;95;40;94
87;72;103;79
64;111;79;76
111;64;103;77
80;87;64;96
87;68;111;95
64;111;64;92
111;64;98;95
64;98;95;64
96;95;72;111
64;111;64;96
103;64;103;103
68;88;111;56
84;95;64;111
64;103;77;72
96;87;64;103
48;103;66;48
84;71;68;95
42;87;63;40
76;71;64;95
36;82;33;76
79;40;79;47
64;63;32;87
32;74;95;24
64;47;48;79
36;87;32;64
45;68;47;56
71;48;63;40
79;32;78;24
78;32;70;45
64;45;64;47
64;47;48;79
36;79;34;66
63;64;79;40
87;40;93;32
92;36;87;32
87;36;78;44
68;59;70;55
72;61;68;71
64;71;64;95
44;95;44;87
71;72;79;64
95;48;95;46
86;62;68;79
64;87;64;95
64;95;64;95
64;95;64;95
52;92;55;72
95;64;95;44
91;47;76;55
76;53;76;47
64;55;64;79
48;87;44;87
38;76;43;64
63;64;63;64
63;52;79;40
87;36;87;32
87;32;76;47
64;55;52;63
40;71;40;79
32;87;32;79
47;64;63;48
87;36;78;47
64;47;64;63
48;79;48;92
36;87;36;86
47;68;95;34
52;95;40;72
87;48;79;79
64;87;64;95
63;80;63;80
95;64;95;95
52;103;64;103
56;96;95;64
92;79;52;106
79;80;111;91
64;100;71;72
111;64;84;95
66;88;63;80
95;52;84;95
79;76;95;40
86;71;72;95
70;72;79;48
86;63;76;95
53;82;79;64
95;52;91;55
76;79;52;95
71;64;95;71
40;84;63;40
76;79;48;87
39;82;32;74
95;48;87;42
48;79;32;86
45;56;95;32
64;45;40;48
71;63;40;79
32;78;32;76
63;52;87;32
64;63;36;52
87;32;76;63
36;93;42;48
93;36;76;95
58;68;79;48
92;55;80;95
62;86;79;64
111;64;103;87
64;101;71;68
100;70;64;109
95;72;95;66
80;111;64;111
71;90;111;64
92;87;80;111
66;88;61;92
111;68;103;95
64;111;60;96
87;68;103;95
64;92;61;80
95;64;95;87
64;84;79;64
86;79;64;94
87;48;72;79
48;95;38;80
79;52;95;63
52;90;55;64
95;48;91;54
64;95;40;78
63;64;63;52
78;55;64;95
36;80;36;78
63;64;95;79
58;68;63;48
93;44;72;95
79;64;95;63
64;95;52;80
95;48;103;79
64;103;52;80
95;58;82;95
64;111;48;100
79;88;61;90
111;72;111;79
72;111;64;108
79;84;119;64
108;64;72;110
64;88;111;64
92;71;64;102
95;64;88;95
50;100;48;80
92;79;68;95
44;95;48;94
95;64;95;87
58;76;95;75
64;95;63;68
95;52;95;48
72;71;64;80
87;36;68;94
40;78;32;76
87;64;79;34
64;63;44;76
79;48;72;71
32;74;63;48
84;32;64;87
32;72;63;32
76;47;36;40
68;63;48;76
79;52;95;32
64;79;52;95
36;91;46;64
95;48;95;53
64;95;48;87
79;48;92;95
60;76;79;64
107;64;86;95
68;84;63;80
95;64;103;87
64;95;80;110
64;110;64;92
95;80;111;64
84;95;64;111
75;80;79;64
103;56;86;103
79;72;95;64
88;87;64;111
58;88;55;80
95;52;92;95
63;80;71;68
92;71;76;95
63;68;71;48
95;44;68;95
42;80;36;76
79;48;95;36
64;79;32;82
55;64;87;63
44;95;54;44
72;63;48;87
47;68;63;32
64;61;48;72
79;32;79;39
52;79;46;64
87;40;78;95
44;80;63;44
86;46;68;71
52;95;40;44
78;47;40;87
38;72;87;48
76;55;64;95
40;80;95;40
86;46;64;95
44;76;95;40
68;63;48;95
71;72;94;95
44;95;63;72
92;75;64;95
52;92;48;90
87;64;94;87
64;95;67;48
80;79;72;63
64;79;36;91
63;64;95;44
72;63;44;40
68;79;48;79
36;76;63;64
87;36;76;55
36;87;40;79
47;64;79;32
68;47;48;87
45;64;87;45
48;87;32;72
63;40;79;32
68;39;32;79
79;48;87;32
64;55;36;79
38;64;87;61
40;95;40;84
55;64;95;79
48;94;55;76
87;48;95;44
72;79;44;80
103;48;103;69
64;95;48;95
79;68;103;79
68;95;52;101
79;72;111;95
64;111;69;88
95;72;111;95
78;84;95;64
88;95;64;111
64;102;58;88
87;68;111;54
84;63;76;108
61;72;103;44
72;79;64;95
40;95;49;74
95;64;95;63
64;95;64;87
79;64;79;36
78;63;74;79
36;87;41;68
87;40;79;63
40;86;79;32
68;55;64;78
47;72;43;64
63;40;87;32
64;47;32;79
55;52;87;63
36;94;44;40
68;63;48;87
46;76;39;68
79;40;84;36
76;43;76;47
52;95;32;78
63;64;95;44
64;95;40;86
79;68;95;42
84;63;80;95
52;95;48;92
71;72;95;79
64;111;64;103
52;111;64;103
54;103;56;103
48;103;48;102
56;92;63;76
87;72;87;64
95;52;95;48
92;53;70;63
64;79;64;95
48;95;44;87
55;78;63;64
79;64;87;32
86;36;72;71
52;79;52;79
48;87;48;87
36;87;40;87
32;95;40;83
38;72;55;64
61;64;63;44
79;40;87;48
87;36;86;32
84;38;72;38
70;53;72;47
68;46;70;63
64;63;68;63
52;87;52;95
44;93;44;95
54;80;71;68
79;72;79;48
95;48;95;48
90;48;80;63
84;54;80;55
72;63;80;71
64;95;48;95
48;90;50;80
95;64;103;44
94;55;82;55
80;47;78;63
72;71;68;60
72;63;64;87
64;63;64;87
62;64;95;63
64;79;48;86
79;64;78;87
63;68;79;48
95;40;95;32
76;63;64;87
32;76;87;32
64;63;36;70
63;36;79;79
36;84;39;68
95;40;79;63
48;95;48;64
95;40;85;87
50;72;55;68
95;52;95;40
64;87;36;76
79;52;93;63
48;95;48;80
79;64;95;40
80;63;48;95
58;68;87;64
84;63;48;93
79;72;95;52
72;95;48;95
79;72;111;48
76;95;64;64
84;95;64;95
63;84;95;64
88;77;84;95
63;92;67;64
84;79;64;91
79;64;94;79
64;103;48;92
79;72;95;64
95;63;84;95
48;95;63;72
95;64;95;48
94;40;84;79
48;95;36;70
95;40;95;48
64;79;36;85
36;74;47;48
74;59;56;79
32;87;32;64
55;64;79;32
68;38;64;63
32;79;46;52
79;32;78;79
36;87;38;64
87;36;64;79
32;74;71;40
70;55;48;87
36;72;63;32
64;55;40;68
63;64;91;79
46;86;51;68
95;48;103;46
64;95;44;88
79;64;95;63
68;95;64;80
103;64;103;36
80;55;64;95
40;88;47;76
95;64;95;44
64;95;64;95
40;90;63;64
95;44;91;87
40;95;50;40
76;63;64;87
44;76;34;68
79;48;76;63
40;87;34;64
87;40;87;36
52;63;48;79
39;48;79;34
64;63;48;79
32;76;38;70
63;52;63;32
76;39;64;79
32;76;32;64
79;40;64;79
47;72;63;40
86;40;64;87
63;64;63;64
95;48;84;79
64;95;51;80
71;72;95;48
88;50;68;95
40;95;63;64
84;50;64;90
71;68;95;71
64;103;66;64
102;52;90;95
52;95;63;72
95;48;94;79
64;103;52;94
79;64;95;95
52;103;59;84
95;64;95;87
48;100;54;72
95;48;94;36
76;44;44;79
47;64;87;63
52;79;40;87
47;64;87;36
64;55;64;79
87;40;79;63
48;79;40;32
64;87;32;64
87;40;54;79
38;64;79;38
68;47;32;78
55;66;63;48
87;36;64;32
64;63;48;78
87;48;91;44
70;63;48;78
95;64;87;44
64;95;48;68
95;52;95;71
64;95;56;72
95;64;95;64
103;56;82;110
66;86;95;72
111;64;102;95
64;103;87;64
108;64;88;87
64;106;79;64
106;64;92;103
91;72;111;56
76;95;64;100
95;64;103;75
68;103;64;84
95;48;64;95
62;80;95;71
48;95;55;68
87;48;92;63
48;95;40;78
55;64;95;63
48;95;40;32
64;63;40;79
43;72;45;64
63;32;87;32
70;32;68;79
32;85;28;68
63;64;87;32
64;63;32;87
38;74;63;64
87;32;78;79
48;95;44;48
72;79;52;80
63;64;63;64
95;48;95;71
64;79;52;80
79;64;88;95
46;95;63;72
95;64;95;87
48;107;71;72
111;64;100;70
64;103;64;88
111;64;100;87
64;95;48;90
79;64;103;52
64;95;64;48
76;87;52;78
87;48;79;95
55;64;95;63
52;95;55;64
82;63;64;86
71;64;79;48
68;79;48;72
63;64;79;32
64;79;36;79
55;64;55;40
87;32;56;79
32;87;47;32
72;47;66;63
40;79;38;36
52;79;32;71
63;32;72;79
32;86;38;48
70;47;48;79
47;64;87;63
48;79;40;64
95;40;64;87
46;87;63;68
95;48;95;63
48;95;46;64
80;79;64;94
79;64;95;48
72;87;72;86
111;64;94;63
72;95;64;84
95;68;103;46
72;95;72;91
71;80;95;48
86;79;68;95
79;72;79;68
103;48;86;79
48;95;51;86
79;64;79;48
95;48;90;38
78;45;72;63
64;79;64;87
40;72;44;68
63;68;63;52
79;40;87;34
78;36;68;44
68;39;56;47
68;47;64;47
64;47;48;63
48;63;52;63
48;63;56;79
48;79;48;95
40;87;36;95
36;95;40;93
46;78;63;64
95;44;76;95
64;79;64;79
64;87;64;95
64;95;64;95
64;103;64;111
64;111;64;100
71;92;79;92
95;72;95;52
106;56;90;63
88;71;76;87
64;95;64;95
72;87;68;95
64;103;52;103
52;102;48;95
71;84;63;76
79;64;79;64
95;48;95;40
94;40;87;38
78;51;68;59
68;55;64;79
48;79;48;95
40;87;36;87
47;70;79;40
86;42;52;79
71;48;95;32
52;79;40;64
79;32;64;79
53;56;87;63
40;95;40;64
79;36;84;79
40;87;55;36
64;79;40;64
79;48;90;39
48;95;44;79
63;64;71;64
95;48;72;95
40;95;54;64
95;48;90;95
52;92;95;48
72;95;64;84
87;72;79;68
109;58;80;103
48;103;48;101
95;64;107;61
64;111;54;84
95;64;103;44
64;95;48;95
71;80;87;48
86;71;48;90
79;48;95;38
80;49;68;87
55;72;79;48
76;55;48;87
42;76;63;52
95;40;82;47
40;95;36;56
70;43;40;70
63;36;70;63
32;79;47;56
87;32;79;79
40;79;55;52
68;71;44;79
55;76;63;52
94;40;80;79
48;79;40;87
87;64;95;79
64;87;52;95
55;84;79;72
100;52;103;71
64;101;56;76
95;64;103;71
64;111;48;90
95;64;95;64
96;71;80;111
58;96;91;64
80;95;64;96
111;64;111;58
80;95;64;95
79;80;103;64
111;58;92;95
48;103;63;72
103;52;86;95
95;76;103;48
80;79;76;95
48;95;55;64
95;44;76;95
63;76;79;64
95;48;82;79
44;87;63;64
86;59;66;79
52;95;44;64
79;48;76;79
36;91;55;64
95;40;68;79
63;52;95;32
84;40;70;87
44;80;63;64
95;40;86;87
55;72;79;68
90;79;64;89
79;68;79;64
95;48;84;63
68;79;64;84
71;64;95;71
64;79;64;92
95;64;95;79
64;111;56;64
88;95;64;79
64;103;56;76
95;64;103;48
84;87;64;84
95;64;103;48
76;79;48;72
95;48;80;95
55;86;61;48
68;87;48;70
87;52;87;44
87;47;64;76
79;48;79;48
95;44;76;79
36;86;54;52
95;47;76;79
46;72;79;32
64;63;48;87
55;68;79;40
95;36;76;63
40;87;44;64
79;36;85;63
40;87;47;64
95;46;72;95
32;95;50;64
95;40;86;79
64;87;44;86
95;48;95;40
92;48;80;79
48;94;55;68
86;63;52;92
95;64;95;40
92;54;64;95
71;72;111;63
64;79;48;88
110;64;103;71
72;95;64;94
111;64;103;103
68;76;95;64
96;64;76;102
79;84;79;72
95;64;94;79
64;95;56;48
72;95;64;95
63;72;79;40
64;87;52;80
79;64;79;64
95;44;90;79
48;95;47;84
71;64;95;79
64;95;48;94
63;68;95;36
76;50;48;86
63;48;82;63
48;87;53;64
87;40;82;79
44;90;79;36
64;95;40;82
79;68;63;76
87;64;95;36
84;44;64;82
79;64;95;36
76;55;48;76
95;48;95;87
48;95;63;76
95;48;95;95
58;96;95;54
88;75;72;90
95;64;111;52
84;95;72;111
69;92;95;64
103;69;64;95
94;80;87;80
106;52;102;75
68;111;63;84
95;64;98;95
56;102;71;52
68;95;48;76
95;48;95;87
48;95;55;76
87;61;64;72
87;44;87;63
48;87;44;76
95;40;87;95
62;76;63;36
64;79;64;95
63;64;95;32
80;53;74;87
79;64;79;48
92;55;68;79
40;90;55;72
95;40;80;95
52;88;63;64
95;48;86;63
64;95;71;44
84;69;64;79
48;95;71;40
86;50;68;90
79;64;88;95
48;103;52;68
95;48;80;95
58;68;95;52
72;87;48;64
88;69;72;95
71;80;79;64
103;48;86;95
50;95;71;76
102;48;84;87
64;95;63;84
95;52;95;95
52;92;79;68
95;48;88;79
60;72;87;48
64;95;40;64
95;40;87;32
64;55;64;79
59;66;79;48
79;36;64;63
36;87;43;64
79;32;70;79
38;70;63;40
64;79;32;64
87;32;79;39
48;79;32;64
79;32;74;79
44;72;63;64
79;46;48;79
79;48;84;79
40;95;51;40
64;95;48;68
95;44;68;95
40;86;63;64
95;48;92;59
64;95;64;95
55;82;79;68
95;48;68;95
71;76;69;72
88;69;76;94
95;64;95;52
64;95;48;95
79;76;95;44
84;59;84;95
44;95;63;64
95;48;87;79
48;87;54;40
64;79;40;87
63;48;86;47
64;63;48;87
36;87;36;79
52;63;52;79
48;79;48;63
78;36;70;63
64;63;64;55
64;47;64;79
52;63;48;87
42;70;47;74
79;48;87;36
84;36;87;36
79;40;68;63
48;79;48;95
40;95;36;94
46;78;52;68
94;48;91;52
76;55;78;55
90;52;76;87
72;79;72;79
64;79;72;95
68;95;68;95
68;95;64;103
64;103;64;111
56;107;52;98
87;72;95;68
103;64;111;64
103;48;103;52
92;71;84;95
64;95;64;95
52;103;52;95
52;95;48;95
52;87;50;80
79;64;95;40
95;40;78;55
70;63;72;63
64;71;64;79
64;79;52;79
40;87;48;94
36;87;34;78
63;64;63;64
87;40;79;32
83;43;64;63
64;63;52;79
44;79;48;87
40;95;36;93
52;76;55;80
54;72;63;52
95;44;90;60
72;63;68;63
68;79;68;79
64;95;64;95
63;90;71;76
95;52;86;87
52;94;63;64
95;48;86;95
64;103;64;72
103;56;92;87
64;103;71;72
111;58;76;103
71;92;87;60
64;95;48;92
71;76;95;40
86;71;64;86
87;64;87;64
95;44;76;87
48;95;48;68
95;40;94;79
48;87;47;68
95;44;86;63
48;87;48;95
36;72;79;32
84;45;64;79
63;48;95;46
48;87;40;64
95;40;79;40
80;32;87;32
52;79;52;66
79;48;87;36
68;63;64;87
62;64;91;36
72;79;68;95
63;76;63;76
95;52;84;87
52;92;71;64
103;48;76;95
79;72;95;52
72;95;64;103
87;80;111;64
76;95;64;88
95;72;111;64
102;71;88;103
71;88;87;80
111;64;84;103
87;80;95;84
111;64;111;64
96;54;84;95
79;64;95;79
64;103;71;64
90;79;72;92
95;52;93;61
64;95;40;84
46;80;63;64
79;48;95;36
82;46;64;79
38;64;79;40
95;40;82;47
64;79;36;68
63;48;87;32
79;37;64;79
32;79;34;68
79;36;79;79
42;78;63;64
95;44;72;87
48;95;59;78
95;48;95;87
52;95;50;72
95;64;88;71
64;103;54;68
103;48;80;95
68;95;64;94
64;80;79;72
95;64;107;52
84;87;64;103
64;80;79;80
87;72;95;64
94;56;80;87
48;94;59;76
95;64;103;44
82;87;64;95
48;86;79;72
95;48;80;87
48;84;79;64
95;63;76;103
38;90;71;48
90;63;40;84
71;64;95;40
92;53;68;87
59;74;55;64
87;36;70;87
47;70;63;64
79;64;63;64
87;48;95;36
76;55;68;87
44;82;55;64
63;64;79;40
95;48;82;62
64;95;44;72
61;80;71;64
87;48;95;48
82;95;50;84
95;64;111;48
84;87;64;82
95;52;84;95
60;90;79;72
111;64;111;48
80;95;64;84
95;68;92;71
64;103;52;68
95;48;84;79
64;87;64;92
62;72;71;64
95;64;95;40
84;54;64;95
48;92;55;68
63;64;87;40
95;40;79;47
64;79;36;72
54;64;79;48
87;32;87;63
48;63;40;79
63;64;63;64
95;40;72;39
64;63;40;64
79;44;79;39
40;87;32;68
79;52;79;40
84;53;64;87
32;76;63;48
72;79;48;80
79;64;95;48
92;46;82;61
64;95;44;84
63;74;87;64
95;48;86;71
64;95;48;84
78;68;95;64
103;52;92;71
80;79;64;92
50;92;63;68
103;64;95;40
84;52;80;61
64;95;52;84
95;64;95;63
64;95;54;76
103;52;76;95
54;86;63;48
86;44;84;95
36;91;42;72
87;40;68;63
56;79;42;52
63;48;76;59
32;84;55;48
79;32;64;71
79;32;87;45
40;79;63;64
87;40;95;44
64;79;48;70
79;52;79;40
64;79;48;86
63;68;79;55
48;93;40;64
94;36;72;87
40;93;63;64
95;40;64;95
47;78;79;40
68;87;48;78
87;64;84;87
56;86;79;64
103;52;103;87
72;87;68;103
66;88;79;72
111;72;111;64
103;64;111;64
103;56;88;95
64;103;79;72
111;64;111;64
103;48;84;79
80;71;64;95
48;82;95;71
72;95;64;80
79;64;80;87
48;95;87;55
64;95;44;72
87;48;87;63
40;95;40;82
79;72;79;64
95;40;95;63
64;79;49;84
79;64;87;36
84;46;68;79
40;87;36;70
79;52;87;36
87;36;70;79
48;95;40;72
55;64;63;52
95;48;95;40
91;52;64;95
48;95;40;84
63;68;87;79
64;95;54;80
95;64;103;54
80;95;52;94
95;72;95;80
111;64;111;79
64;111;64;64
100;64;95;103
52;96;71;64
80;95;52;92
79;68;95;40
90;58;72;95
48;80;95;64
95;64;95;50
72;87;48;95
48;95;44;76
71;64;95;44
95;48;82;63
64;95;40;76
79;64;95;52
95;40;95;38
87;63;64;95
32;84;55;76
95;48;95;40
76;38;64;87
55;64;79;48
79;36;72;39
64;63;40;78
63;40;79;79
36;78;79;64
84;63;40;85
51;80;79;64
79;52;95;40
94;48;78;79
52;95;50;72
95;52;95;40
84;79;64;95
48;95;61;72
79;76;87;64
111;64;103;56
80;95;64;103
79;84;95;72
103;64;111;64
92;71;80;95
64;95;68;95
52;101;48;103
52;88;53;95
52;88;46;76
87;48;95;64
95;48;93;36
95;40;87;44
76;61;64;59
78;40;64;63
64;55;52;55
64;59;64;79
64;63;48;87
32;87;40;87
44;79;40;87
32;87;32;84
32;79;32;78
42;77;39;68
63;52;63;48
86;32;78;47
64;63;64;63
52;71;64;79
64;79;64;95
48;95;52;87
63;72;79;64
94;44;82;79
72;71;72;79
68;79;64;95
52;95;64;103
64;103;64;111
64;111;64;103
64;103;64;102
64;103;52;103
52;95;52;92
63;88;52;84
63;84;59;80
79;72;95;64
95;48;94;40
80;79;40;90
79;68;95;40
78;55;68;87
63;72;51;64
95;44;95;47
52;82;71;64
93;40;95;79
40;84;79;64
95;40;95;47
64;63;64;87
44;87;55;64
87;64;95;40
95;40;78;61
64;87;48;94
44;76;79;52
95;40;87;36
76;63;64;87
48;86;46;64
95;64;87;48
95;44;64;95
40;95;40;40
84;63;72;94
63;68;95;71
64;95;48;72
95;48;103;63
64;95;64;95
79;86;87;76
111;64;92;79
76;95;52;68
95;71;72;95
64;103;52;84
79;68;79;64
95;48;95;40
84;61;68;63
68;79;48;95
40;91;40;68
79;64;63;64
95;40;78;55
64;79;40;78
38;64;63;32
87;48;79;32
64;79;55;36
52;79;32;70
79;52;79;52
87;32;87;59
40;91;36;70
87;48;95;40
78;32;64;47
64;63;40;86
55;68;87;79
40;95;53;72
79;64;95;40
90;46;72;87
48;92;79;64
95;48;88;44
76;87;44;84
71;64;95;44
95;48;80;59
68;71;64;92
71;72;87;64
102;52;80;95
87;72;95;64
103;52;103;79
64;102;48;76
95;64;103;44
72;79;68;94
87;76;87;64
103;44;82;79
48;92;79;71
64;95;48;95
52;80;52;64
95;40;95;32
80;46;68;95
38;76;63;40
76;38;78;63
40;79;34;52
79;32;87;32
52;79;71;55
48;87;63;64
95;32;95;40
64;63;40;72
55;64;82;47
52;79;40;64
87;36;86;79
40;87;63;40
68;79;64;95
44;84;87;64
95;48;80;95
42;94;44;52
72;87;48;86
95;68;95;48
84;79;64;94
87;80;87;72
109;52;84;95
64;111;79;64
88;95;95;87
64;111;64;80
111;64;92;95
64;111;64;80
111;64;103;63
64;109;50;76
95;48;94;95
36;95;63;76
95;48;84;38
68;55;64;79
40;95;36;64
95;36;95;34
48;79;34;48
76;32;79;28
48;79;32;48
87;32;79;20
79;32;64;79
32;76;55;48
64;63;64;79
32;78;43;52
70;63;64;95
47;76;61;64
92;44;80;95
50;80;95;71
64;95;54;80
79;64;95;48
84;87;64;76
111;64;95;95
64;107;58;68
111;64;103;79
64;111;64;94
95;88;111;64
96;95;80;102
95;84;95;64
92;79;80;100
95;72;111;48
76;95;95;64
111;48;96;58
64;95;71;72
95;64;95;62
64;92;95;63
64;95;50;76
87;48;95;95
40;95;79;64
94;49;72;95
40;95;55;48
64;79;48;84
79;32;84;63
44;87;32;76
79;52;87;40
79;38;64;63
36;86;47;68
63;48;87;32
64;79;40;64
95;64;87;63
48;95;52;95
44;76;71;48
86;44;82;87
40;91;46;64
95;48;86;71
52;95;79;48
84;54;82;79
48;95;52;82
95;70;64;92
95;64;101;95
64;110;95;80
94;79;64;100
95;80;111;64
100;52;80;109
58;96;87;68
103;48;76;95
40;102;40;84
95;64;95;48
86;44;90;95
44;82;87;40
68;79;52;95
36;84;63;64
95;40;95;40
64;87;36;64
95;32;87;32
68;47;64;79
63;64;79;63
40;85;43;64
95;40;79;63
48;79;79;40
91;40;70;87
32;82;63;52
95;36;95;40
78;63;64;86
79;68;87;63
48;80;95;48
92;54;52;88
79;64;87;40
76;79;48;80
71;64;92;95
40;101;48;103
79;72;95;48
84;78;72;87
64;94;95;48
102;48;103;87
64;99;95;64
100;52;107;52
80;95;62;64
95;48;92;77
52;92;44;64
86;40;76;95
36;82;40;64
95;40;87;63
40;95;40;68
95;48;95;40
72;63;64;79
36;78;42;48
87;32;87;32
79;32;64;79
32;78;55;36
66;63;52;74
55;64;79;43
48;79;36;68
87;32;70;79
44;68;59;48
84;32;48;87
32;91;38;48
87;39;84;55
40;79;55;64
87;40;87;63
52;88;63;72
95;44;80;87
48;95;55;72
111;64;76;71
64;87;64;101
54;86;71;80
111;48;111;48
84;59;84;103
63;84;87;71
64;102;95;64
64;95;64;95
87;64;111;64
95;58;86;55
76;63;72;95
64;95;52;95
64;79;68;95
64;95;64;95
64;95;64;103
48;95;48;95
40;95;40;80
47;80;47;76
71;52;95;36
78;63;52;79
48;79;40;79
40;79;32;87
32;79;36;74
60;66;63;64
79;52;87;36
80;46;72;32
87;32;79;32
78;42;64;55
48;63;64;63
64;79;48;95
48;87;64;79
48;95;48;95
48;87;64;103
48;103;48;95
52;95;64;95
64;111;52;103
55;95;60;86
95;68;95;64
100;48;92;70
76;79;72;95
64;95;64;103
48;95;48;95
50;89;55;86
71;72;79;64
95;40;95;44
76;71;64;79
48;95;40;95
36;95;40;84
44;82;40;72
45;70;79;63
36;86;47;52
79;32;68;79
47;64;79;32
68;55;32;72
63;48;79;63
36;79;32;76
63;48;79;36
52;79;32;64
95;32;95;32
74;52;64;87
71;48;95;54
64;87;44;72
95;52;95;71
48;95;70;48
84;79;48;72
95;40;95;95
54;80;79;52
86;71;64;95
52;72;95;48
92;48;90;95
52;90;79;48
76;71;64;76
95;52;68;95
52;80;95;71
64;92;79;68
111;48;95;40
80;61;64;87
63;64;63;48
86;36;87;79
40;87;51;48
87;47;64;87
40;72;40;68
63;48;87;32
64;47;64;63
32;76;32;56
79;32;79;36
68;43;48;79
55;64;79;40
87;32;76;47
56;63;32;64
79;32;66;79
47;64;55;52
87;32;76;87
44;64;55;48
86;47;72;71
48;79;40;78
55;64;92;79
40;91;44;72
95;40;87;63
64;95;54;64
103;40;95;52
72;95;52;76
95;52;100;55
64;95;48;94
63;68;103;48
84;63;80;95
63;80;95;48
80;75;64;92
79;64;87;64
100;42;92;79
48;93;48;72
95;36;64;95
32;72;79;48
68;55;64;79
79;52;71;32
64;45;32;52
87;32;79;55
40;79;32;64
68;79;64;87
32;74;59;36
52;79;34;52
79;28;64;63
24;74;39;48
79;32;66;87
24;68;63;32
40;75;32;64
95;32;79;32
78;35;64;79
32;78;39;72
79;48;95;32
76;63;68;86
79;64;95;40
72;63;64;76
95;40;95;44
82;63;68;95
40;87;79;64
80;71;72;103
61;76;95;48
92;59;88;111
62;80;79;52
64;95;48;95
71;66;95;48
76;63;76;79
52;79;44;64
95;36;95;34
64;63;52;86
46;64;63;48
87;32;76;79
32;84;79;32
70;63;52;79
63;48;87;79
40;79;42;64
84;32;52;63
52;63;32;68
79;48;79;32
64;71;40;68
79;48;79;32
48;79;36;72
55;48;95;32
64;47;52;64
79;32;48;70
63;48;79;48
78;47;56;95
32;86;63;64
95;40;87;95
48;82;95;64
90;95;64;102
52;94;103;64
88;79;64;107
79;80;111;64
84;79;72;103
79;64;111;64
96;95;64;88
111;64;111;77
68;107;111;64
80;87;68;92
103;64;80;95
50;80;95;79
48;92;48;64
95;36;95;40
64;79;64;87
79;48;95;40
64;87;79;64
95;36;76;87
36;79;43;52
95;40;87;36
66;55;64;79
32;79;32;48
68;42;52;78
22;64;79;63
36;74;87;79
40;79;79;79
40;92;40;80
63;64;95;52
79;51;68;95
50;72;63;64
95;40;90;95
36;94;63;64
95;44;82;95
40;93;59;68
103;48;95;44
82;63;74;63
64;87;64;78
95;48;76;95
48;76;63;48
95;41;72;84
79;64;95;40
72;63;52;87
52;64;79;52
87;79;48;95
40;72;63;44
87;39;72;95
55;68;87;79
32;87;32;64
79;47;64;95
47;70;87;79
40;87;44;64
86;36;64;87
36;64;63;32
44;63;39;52
87;32;79;24
64;47;40;74
38;48;63;24
56;30;32;48
68;16;48;79
47;64;79;32
78;32;64;63
40;71;40;68
79;52;87;48
70;63;64;95
79;68;95;40
86;51;84;79
48;80;95;40
76;51;64;80
71;64;82;95
48;78;79;64
103;48;111;63
48;95;58;72
111;48;95;95
64;95;56;92
71;84;95;52
64;95;79;64
111;48;107;48
68;87;64;80
95;64;95;87
36;95;63;64
82;63;64;93
79;64;95;87
40;84;79;52
74;47;68;87
44;70;63;44
87;32;79;63
32;78;32;68
79;32;79;40
64;63;48;87
55;64;87;32
64;79;36;86
71;32;87;40
84;32;76;79
32;87;63;64
95;48;95;48
95;36;80;79
48;84;95;64
103;40;76;71
64;95;69;48
80;54;64;92
53;68;95;48
95;36;78;79
40;86;71;52
95;40;95;63
48;95;51;76
95;48;95;50
68;95;95;48
72;79;64;89
87;64;95;48
95;36;95;44
72;79;48;91
79;64;79;64
95;40;95;63
40;93;40;64
79;79;64;87
75;36;95;48
95;34;78;87
63;64;95;40
72;44;64;79
63;64;79;28
64;47;48;79
32;64;63;40
79;64;55;48
79;32;87;32
78;32;76;55
64;55;48;87
48;79;40;76
47;68;47;64
87;40;93;45
76;62;64;79
64;71;68;95
64;95;48;95
48;95;48;95
44;95;48;82
55;80;79;64
95;48;95;44
86;55;80;44
86;54;82;52
80;63;64;79
64;79;64;79
64;79;68;71
72;79;64;95
64;95;48;95
52;84;63;64
95;40;90;62
72;79;64;87
64;79;64;87
52;87;48;95
40;95;48;95
40;95;40;90
40;80;55;78
55;68;63;48
95;36;70;87
36;66;55;44
84;32;76;71
39;64;55;32
74;32;68;79
24;78;63;36
44;79;32;68
87;40;87;36
64;79;32;86
47;64;87;48
76;63;64;95
63;70;87;48
68;87;48;80
93;44;86;71
48;80;95;48
72;79;48;80
95;48;95;48
88;63;76;95
44;87;71;72
95;48;103;48
80;87;48;88
87;48;93;45
64;79;48;95
79;64;95;95
44;86;79;64
84;71;64;95
48;76;87;40
80;63;68;95
32;90;55;52
82;47;72;79
32;79;63;64
79;32;84;55
48;79;63;32
56;63;40;79
63;56;87;36
76;32;56;63
36;64;39;48
79;36;79;30
64;63;36;79
55;48;79;32
64;55;40;70
79;32;95;32
68;63;48;84
63;64;71;50
48;95;32;86
79;64;79;48
68;79;48;90
79;68;95;64
103;40;95;95
71;72;87;64
88;63;94;58
68;87;80;95
64;103;71;64
111;64;103;64
96;79;76;103
78;80;103;95
64;95;64;64
103;48;95;52
72;95;52;76
103;44;90;53
68;63;70;95
63;68;79;71
48;95;44;76
95;64;95;40
80;63;78;71
44;80;32;40
76;55;64;79
63;48;79;32
48;79;32;74
79;48;79;32
64;55;68;63
40;79;42;64
87;40;91;38
64;63;48;74
87;48;79;71
40;95;36;87
36;64;71;44
80;38;64;86
36;64;55;64
95;40;87;55
64;95;40;72
91;47;84;95
40;84;40;64
87;79;64;91
63;76;63;68
103;48;86;87
52;84;95;48
84;54;72;95
63;68;95;46
72;79;64;86
95;64;103;50
80;71;64;95
55;72;95;48
74;75;48;76
95;52;91;44
64;79;44;70
95;40;87;32
64;55;64;79
36;64;79;39
56;63;40;87
36;56;79;32
64;32;56;63
32;68;79;46
52;55;64;63
40;63;40;79
63;56;71;32
64;79;46;56
87;32;78;63
40;76;63;48
87;36;74;47
64;79;48;87
44;79;95;48
86;40;64;72
87;64;86;71
64;93;95;48
76;79;64;92
63;68;103;48
64;95;48;95
62;68;71;48
90;53;72;87
95;64;95;48
80;79;68;95
44;86;50;72
95;48;95;51
68;87;48;68
95;48;95;40
56;87;44;72
95;64;95;36
64;79;48;80
55;64;93;36
68;63;52;87
32;87;59;64
95;36;84;87
63;64;79;48
82;38;64;87
47;72;87;40
84;36;68;63
40;85;63;36
48;87;32;70
87;36;76;79
32;79;53;64
79;48;87;38
64;79;40;76
79;52;95;32
72;63;64;79
44;86;55;40
68;63;64;94
79;48;95;44
80;63;72;94
79;64;95;48
95;48;84;63
80;63;72;87
64;87;48;84
95;58;92;95
48;103;64;72
88;55;80;87
40;95;40;84
79;64;79;64
95;40;84;95
61;72;95;40
76;63;76;79
36;87;95;48
68;63;52;94
44;78;51;64
95;40;95;36
52;79;32;64
95;32;76;47
40;78;79;63
40;76;79;36
68;47;64;79
36;64;87;32
56;63;68;87
32;82;36;52
70;55;56;87
47;68;95;32
68;53;36;66
63;48;79;40
72;63;72;79
48;80;79;40
64;79;64;95
40;76;79;44
72;53;64;95
79;64;95;40
76;61;86;71
64;94;87;48
100;48;76;95
44;94;103;64
76;95;76;102
79;68;103;63
72;79;68;103
79;64;95;48
72;95;64;103
48;80;79;64
95;40;78;87
48;76;95;44
76;62;64;95
63;64;87;63
64;79;48;84
55;64;91;38
64;63;48;87
62;52;87;32
64;53;52;79
40;64;79;36
72;32;64;39
40;77;79;32
76;24;64;63
36;64;87;32
64;55;48;79
55;48;91;36
64;63;64;87
71;64;95;36
76;63;84;87
48;84;79;64
95;64;95;44
95;48;95;48
84;61;76;79
68;79;64;95
64;95;48;95
52;95;60;92
48;94;50;94
87;80;79;88
64;86;55;92
52;90;48;102
48;95;48;90
64;71;64;95
68;62;72;55
64;63;64;95
52;87;40;87
36;84;32;78
47;70;47;68
47;64;55;64
63;48;79;40
79;36;87;32
71;47;64;79
40;79;40;87
32;79;32;76
47;64;55;79
32;79;38;64
79;48;79;32
83;34;64;63
40;79;48;87
64;79;48;91
32;93;40;95
36;91;36;86
38;84;42;76
44;80;42;82
63;72;55;90
40;80;63;72
63;70;79;72
87;64;87;64
95;44;92;61
76;79;64;95
52;95;64;94
95;68;95;52
72;95;64;88
79;80;95;52
80;79;72;95
59;80;95;95
48;95;58;48
80;63;64;95
47;64;87;40
76;46;76;79
40;64;87;38
64;55;52;91
59;48;79;32
64;63;40;87
39;64;79;36
83;26;74;47
48;79;40;64
79;40;79;32
76;28;56;79
32;64;63;40
76;32;52;76
47;54;79;34
48;79;32;85
47;68;71;36
64;63;48;76
79;48;91;36
68;63;64;95
40;86;63;44
80;63;74;95
40;95;79;64
86;55;72;95
79;64;95;48
76;79;48;80
87;64;103;48
88;52;64;95
48;95;44;92
63;64;95;48
84;63;64;87
52;95;64;93
63;76;95;48
80;59;72;95
40;82;79;52
87;36;48;76
63;64;95;32
64;47;64;79
55;64;87;32
64;63;48;79
38;68;63;32
64;55;48;79
24;76;63;47
36;79;32;70
63;48;79;36
56;79;40;87
54;64;79;87
36;64;79;40
72;63;56;84
79;48;95;36
64;87;36;64
79;40;79;63
68;63;48;87
36;72;87;40
82;55;80;71
40;85;55;64
95;40;87;51
48;91;54;72
87;48;95;52
72;87;72;87
64;95;48;84
79;64;92;71
52;95;79;64
98;40;80;95
71;76;95;49
86;55;86;63
64;79;64;95
59;64;86;95
36;90;71;64
93;47;68;79
40;87;50;52
95;40;86;54
68;63;48;79
32;64;55;64
87;32;66;79
36;64;87;32
64;47;52;87
47;48;63;40
76;24;72;55
32;71;32;56
77;47;66;87
32;87;32;48
87;32;79;47
64;63;52;87
63;68;95;40
86;63;64;95
40;82;79;64
95;40;80;95
64;85;87;64
103;52;76;95
52;82;95;52
76;79;48;90
79;68;79;64
98;48;64;95
58;82;95;64
95;66;76;95
48;103;48;86
95;48;94;95
60;80;79;48
86;79;64;95
87;64;95;48
92;50;64;95
42;82;63;48
74;63;64;94
63;64;71;52
95;36;68;91
63;64;71;40
87;36;40;87
39;74;71;32
56;61;64;79
63;40;79;32
76;47;40;87
63;48;79;48
87;32;64;79
79;36;79;87
42;64;87;32
52;79;64;76
79;48;95;71
48;95;87;48
80;79;64;95
62;68;95;71
64;102;61;64
95;63;84;95
64;92;48;92
95;64;103;62
80;95;64;103
95;68;95;52
72;95;64;103
95;68;95;64
106;71;64;111
63;88;111;71
64;107;52;64
88;71;64;95
40;91;40;52
95;36;84;87
44;76;79;48
92;32;78;79
36;72;87;36
64;63;48;79
45;64;63;32
56;63;32;70
79;32;79;63
36;79;40;64
75;24;48;79
45;48;79;32
70;37;52;79
47;52;79;32
64;55;40;79
63;52;79;44
87;47;64;87
55;64;87;63
36;95;71;64
103;40;95;48
64;87;48;72
95;48;95;48
86;61;64;91
71;76;92;95
55;72;95;52
64;95;48;80
103;64;95;44
72;95;48;68
95;48;72;95
52;86;79;52
72;87;72;95
48;95;59;72
103;44;80;95
48;87;48;86
71;68;95;48
84;52;78;95
48;94;51;76
79;48;91;36
64;95;40;68
95;40;76;47
48;87;40;76
55;64;87;32
48;79;32;56
79;40;79;63
32;83;63;32
52;63;40;64
63;32;87;63
36;71;79;32
76;47;70;63
40;79;32;76
79;40;79;47
48;87;32;84
63;64;87;40
48;79;48;82
63;52;95;44
64;95;52;64
95;40;76;79
48;95;40;93
79;80;95;48
80;63;80;87
64;103;52;84
103;48;95;64
94;63;64;95
79;64;103;44
72;79;72;95
40;95;87;64
86;71;64;95
95;64;95;48
84;63;64;95
48;95;48;78
79;40;95;40
76;63;40;68
95;32;48;87
36;74;39;40
70;28;64;63
32;79;47;36
79;47;48;87
55;48;76;79
36;74;37;40
79;24;74;39
36;79;37;52
79;32;79;32
68;55;52;87
38;70;87;32
48;79;32;64
79;43;64;95
32;93;79;40
84;54;72;95
79;64;92;61
64;79;76;95
71;72;95;48
64;95;48;90
87;64;102;55
64;95;52;72
95;40;103;54
80;79;72;103
52;76;71;72
95;48;95;46
76;79;64;87
95;64;95;44
68;95;48;76
79;52;87;46
64;87;48;87
87;52;79;36
84;47;48;79
59;68;79;36
76;55;48;87
32;87;36;64
87;32;64;79
32;68;79;32
68;63;40;70
79;36;79;32
70;43;68;79
36;64;28;64
79;32;64;63
32;79;32;52
76;43;82;63
40;87;32;76
47;64;79;40
91;32;74;45
64;71;48;87
36;76;79;48
95;36;76;87
54;64;79;64
95;55;72;95
71;64;79;64
94;55;68;95
48;92;63;64
100;52;80;95
52;92;95;64
96;48;68;95
79;64;80;95
48;80;71;64
95;48;95;50
68;63;64;95
44;80;87;40
84;55;64;95
36;78;63;64
79;48;87;34
72;42;64;79
32;72;47;52
79;40;79;32
64;79;20;52
79;36;79;28
56;79;32;70
63;48;63;32
76;28;48;79
39;64;63;24
64;63;40;79
47;68;87;32
76;51;48;64
87;32;78;47
48;79;40;64
79;32;84;47
64;79;48;93
55;76;95;64
95;34;80;79
64;95;44;64
76;95;44;86
95;64;95;103
87;68;72;103
52;95;95;52
80;95;64;80
95;64;111;52
88;79;64;111
40;95;48;72
103;52;76;87
48;95;40;64
95;44;68;93
63;64;63;36
64;87;40;68
87;32;85;39
68;79;32;79
63;56;87;32
64;63;52;79
47;68;55;36
79;24;78;43
40;63;20;48
78;24;58;63
26;64;34;40
75;34;48;70
55;64;79;36
64;63;56;79
40;79;40;87
32;80;32;52
93;36;79;32
76;63;72;55
48;95;48;95
68;52;87;63
64;95;64;92
95;64;95;63
68;95;52;72
103;52;80;95
48;95;87;64
98;48;80;95
48;103;48;84
87;64;95;54
64;95;68;103
48;72;79;40
72;71;48;78
95;48;76;95
71;64;91;79
40;83;95;64
92;63;84;79
48;95;40;78
87;47;48;68
87;40;64;63
40;87;46;40
78;34;48;79
32;79;47;48
85;32;48;79
24;79;47;40
74;32;48;63
32;79;26;32
74;20;68;63
40;79;32;44
79;47;64;87
24;87;55;64
79;61;68;79
40;95;63;68
95;44;72;95
75;64;79;48
86;63;64;95
44;86;87;48
88;63;64;95
40;95;44;84
79;64;95;52
64;95;58;68
102;62;76;95
48;94;79;68
103;48;64;103
62;72;87;64
95;48;76;95
44;95;50;48
72;79;64;80
79;64;94;52
68;71;48;74
79;64;71;36
76;47;36;78
63;68;32;40
87;22;70;63
36;79;40;68
63;40;79;28
44;63;24;71
35;52;63;32
70;16;66;63
32;79;32;79
24;74;39;56
63;52;63;48
79;32;79;32
64;43;64;63
40;79;32;87
32;79;55;64
79;48;79;40
93;36;87;45
72;46;78;62
52;87;48;95
44;88;46;76
63;72;79;52
95;48;95;48
90;44;90;60
64;79;64;95
48;95;48;94
40;91;44;86
62;80;63;76
63;68;79;64
95;48;95;48
86;51;78;79
48;87;48;95
40;93;36;84
47;76;47;68
55;68;63;52
87;32;79;36
68;55;64;63
48;79;36;79
44;79;32;78
24;79;32;56
63;40;63;40
76;32;75;32
64;55;40;79
32;79;32;79
32;78;32;64
63;64;63;52
79;36;87;36
78;46;64;79
52;79;40;87
40;95;40;84
63;64;95;40
80;55;64;87
63;64;95;79
64;95;71;64
96;48;95;61
80;79;64;103
60;84;103;56
84;79;64;95
95;80;103;60
88;79;68;94
79;80;103;60
76;87;64;72
103;48;87;95
44;82;95;61
64;95;52;95
55;64;95;46
68;63;64;86
63;48;79;45
64;79;52;94
77;48;78;87
40;76;79;38
72;63;32;72
63;52;87;32
68;63;48;87
39;64;79;47
40;79;32;48
71;55;56;87
59;64;79;32
68;45;64;79
36;68;39;40
72;63;48;91
37;70;63;32
74;55;64;87
40;78;47;68
79;64;95;40
82;55;84;79
44;88;77;64
92;48;80;95
71;64;88;87
50;76;95;52
86;54;99;79
72;95;64;72
103;64;103;87
64;111;48;92
95;64;103;79
64;103;48;84
95;48;88;95
60;64;95;46
64;79;36;64
95;34;76;63
40;95;36;64
90;32;72;79
36;87;55;52
95;40;52;95
32;87;59;48
80;47;52;87
52;52;63;48
84;38;48;87
32;78;63;36
64;63;48;87
32;87;32;64
79;20;87;32
52;79;32;52
87;20;76;55
40;79;37;64
87;38;48;79
63;64;87;44
48;63;36;87
55;68;87;36
72;63;40;72
87;36;95;40
76;71;48;84
79;64;79;48
90;50;72;92
52;80;79;64
94;58;68;95
52;91;95;48
72;87;64;95
48;95;79;64
95;42;72;84
71;64;90;36
64;79;64;94
79;48;87;50
68;79;36;76
95;36;87;40
56;71;40;79
79;40;79;47
40;79;63;48
82;32;79;47
36;77;34;32
52;63;32;48
71;37;44;79
20;79;24;44
63;16;56;63
32;79;40;79
71;32;64;79
32;79;32;79
79;36;64;79
42;76;47;44
87;40;64;87
40;76;95;48
80;46;64;95
75;64;95;54
68;79;48;84
95;52;95;48
80;71;80;103
87;64;95;64
92;79;64;111
55;96;71;72
103;64;95;71
68;95;64;76
102;48;76;95
48;95;63;68
95;40;76;95
52;80;95;48
80;46;64;92
79;48;76;63
40;95;40;79
63;52;86;38
52;79;32;70
55;44;75;32
52;79;32;44
79;24;56;63
24;70;55;32
64;55;52;79
24;66;63;40
79;32;78;55
48;79;32;72
79;48;78;63
32;68;53;52
86;32;72;63
36;82;47;52
87;32;66;79
53;48;79;55
32;91;36;64
79;36;64;79
36;95;36;84
63;64;93;63
64;87;64;95
63;86;87;68
95;58;86;79
64;95;48;82
95;64;90;79
64;95;48;80
79;64;94;75
48;95;44;95
52;88;79;64
86;63;56;72
87;38;95;44
64;79;36;72
63;64;87;55
48;87;32;76
87;40;82;47
40;79;32;64
79;32;64;75
39;64;63;32
48;79;48;87
32;52;55;32
79;24;66;63
40;79;24;68
79;48;79;43
64;63;48;70
87;32;64;79
45;48;79;54
64;63;48;79
79;40;79;63
48;87;40;95
40;80;40;64
87;64;87;46
72;79;40;80
95;40;95;48
72;79;48;95
40;92;79;48
88;63;76;79
48;95;48;72
79;64;95;54
76;79;76;79
48;76;95;63
52;95;64;76
95;46;82;79
52;78;54;64
95;32;91;36
64;87;40;64
95;40;64;79
38;79;42;48
87;32;79;63
48;79;32;52
87;32;64;79
36;70;79;36
64;63;32;72
63;52;79;55
64;79;64;87
36;80;55;64
87;47;64;79
32;87;51;40
64;79;40;84
63;64;86;39
64;71;48;87
40;84;59;44
84;55;52;95
48;87;44;72
55;76;63;80
79;64;95;44
92;48;82;63
68;79;64;95
52;95;48;94
48;95;63;80
87;76;95;72
95;64;103;52
88;71;80;71
68;87;64;95
52;95;48;88
60;76;55;84
79;64;95;64
95;48;95;44
78;55;76;71
64;79;64;95
42;87;55;76
55;64;79;52
87;48;79;48
87;36;86;38
64;71;52;79
32;79;39;66
46;68;55;52
63;48;63;40
70;38;66;63
40;71;36;79
32;78;47;64
63;64;71;36
79;32;68;42
64;63;48;87
44;72;63;64
79;52;95;40
86;40;78;52
64;79;48;95
40;95;44;82
63;72;79;64
95;64;95;48
80;59;80;79
64;95;64;95
48;103;54;80
95;48;95;79
48;95;48;68
84;95;48;76
95;48;80;63
48;94;50;72
86;63;64;95
32;87;42;64
91;36;82;47
64;79;40;78
79;52;84;43
64;63;32;76
63;56;87;54
64;79;36;64
87;32;76;47
48;79;32;54
79;40;79;47
44;79;20;52
79;32;64;63
32;79;32;64
63;48;87;24
44;79;32;48
79;32;79;87
32;68;87;63
40;95;32;84
79;48;82;63
48;87;64;87
63;64;95;48
68;63;76;71
64;95;40;86
79;72;95;48
68;95;64;84
95;64;100;60
80;79;64;94
95;52;86;95
64;107;48;84
103;50;82;95
52;82;63;64
95;48;92;95
48;95;67;64
95;44;76;79
36;95;46;64
87;48;76;95
63;64;78;71
48;95;40;48
82;38;64;87
54;64;79;44
64;79;40;95
32;86;32;48
76;32;48;64
79;40;64;79
32;68;55;32
79;32;64;68
55;48;63;36
64;63;32;79
32;64;36;64
79;32;79;39
48;79;48;78
79;32;72;71
48;87;47;72
95;40;86;63
40;95;63;44
84;79;72;95
66;68;95;52
72;95;52;103
69;76;79;48
84;50;64;84
63;72;95;48
88;55;76;79
48;95;40;72
95;71;68;95
46;88;40;88
87;48;93;48
68;79;32;76
95;40;87;44
64;71;32;78
63;64;79;36
79;55;64;87
32;93;32;84
47;52;87;47
64;63;52;78
63;48;79;32
64;47;56;87
32;78;32;40
64;79;32;77
63;40;79;42
44;63;40;87
47;64;47;52
85;36;64;79
32;86;40;48
87;40;76;87
36;70;79;42
64;61;68;95
38;80;63;64
88;40;64;79
40;78;95;55
68;71;64;94
79;64;95;58
64;95;76;93
64;103;48;80
103;48;94;54
64;95;48;88
95;48;86;87
64;95;54;64
92;42;90;71
40;95;48;93
63;64;95;36
72;71;36;68
86;32;72;79
40;87;38;76
63;64;63;40
68;63;40;79
32;77;39;48
72;38;44;64
79;32;78;30
48;79;20;56
78;20;71;24
52;55;32;74
63;24;71;39
36;79;36;76
79;32;79;39
52;71;32;79
63;40;64;79
63;64;87;36
68;47;78;63
52;87;40;68
92;36;68;86
79;44;78;71
48;95;64;86
79;64;95;62
68;79;84;79
52;102;48;72
95;64;95;71
52;111;52;84
95;64;94;79
72;95;64;92
110;64;102;75
64;95;64;111
62;94;71;64
95;60;64;95
91;64;88;79
64;95;44;76
95;48;87;63
64;87;36;80
71;48;72;87
39;72;79;32
64;55;64;79
36;79;32;68
79;32;79;32
72;47;68;79
38;66;63;44
87;32;74;55
52;63;64;79
32;85;45;36
68;34;71;55
40;79;32;86
32;76;55;48
79;43;48;87
63;48;72;71
48;91;36;68
87;32;87;47
48;87;47;68
95;48;86;95
59;84;71;72
95;48;95;70
64;103;58;72
95;48;95;48
86;71;64;76
95;48;92;77
64;103;48;72
95;48;80;95
52;80;79;64
88;42;90;47
64;87;64;95
55;84;51;64
95;64;95;50
64;95;48;68
95;48;87;71
48;87;34;52
87;43;72;79
32;74;61;32
68;46;48;72
55;52;79;38
48;63;20;64
79;24;79;30
64;79;32;87
32;72;71;36
68;63;40;68
79;32;64;79
32;72;28;64
79;32;76;45
64;63;48;68
79;32;72;75
48;95;32;64
91;36;84;55
64;79;32;80
87;68;63;48
80;71;64;72
95;44;80;79
64;95;48;68
95;40;95;60
68;79;48;80
95;40;90;63
64;95;48;72
95;40;91;54
72;79;44;92
79;48;95;40
64;79;40;76
94;40;95;36
72;47;32;76
79;32;78;59
40;79;32;68
79;32;68;47
40;79;40;52
79;32;79;55
48;79;32;72
71;32;79;32
56;63;36;64
78;32;48;79
24;68;20;64
63;48;71;32
52;79;40;79
32;79;59;36
64;63;48;68
79;40;72;87
63;64;87;47
64;79;68;95
44;87;40;64
87;36;72;62
40;87;36;64
84;32;87;44
76;46;68;87
64;79;48;91
51;86;71;64
95;64;95;48
95;48;95;59
72;71;68;63
68;63;64;79
40;90;63;68
87;64;95;64
95;48;95;48
95;44;95;48
93;36;95;48
95;40;95;40
85;36;87;32
70;39;70;47
40;79;32;74
32;70;47;48
79;40;79;32
68;47;64;55
40;63;32;87
32;79;40;79
32;79;32;68
34;70;46;52
63;40;79;32
78;34;64;55
44;71;32;78
32;76;55;64
55;52;63;56
87;32;87;40
87;32;87;43
76;63;64;71
52;79;40;87
52;80;63;68
95;48;95;48
82;63;76;87
72;59;84;48
64;87;68;95
64;76;95;64
95;52;103;54
86;58;90;53
80;63;80;55
64;79;52;95
64;71;64;95
44;86;54;84
42;95;46;76
44;76;47;64
71;64;79;64
95;36;91;40
86;32;85;32
68;47;64;79
32;79;32;56
87;32;52;79
39;64;63;48
71;32;72;51
48;63;32;70
71;32;79;32
48;79;32;64
79;32;79;47
48;79;32;72
79;32;64;79
32;87;36;64
79;32;68;63
48;87;38;64
95;40;85;63
64;95;36;72
79;48;84;95
42;80;63;64
95;44;80;71
64;95;48;68
95;48;80;95
54;68;87;54
72;79;76;79
48;95;44;64
84;52;80;63
64;95;40;64
95;48;87;63
64;95;40;80
95;48;95;36
68;63;36;76
63;68;63;36
68;63;44;64
79;32;64;71
32;68;47;52
87;32;79;39
52;79;32;79
63;32;79;24
56;47;32;79
30;68;47;40
79;28;48;79
28;76;24;64
78;32;68;79
32;79;63;32
68;47;32;76
55;64;87;36
64;63;52;83
55;64;87;32
64;71;64;87
36;87;79;40
76;79;64;94
79;48;76;95
79;68;95;48
76;71;64;92
95;64;95;48
90;54;84;79
64;95;48;92
95;64;84;79
64;95;64;80
103;64;86;70
64;95;48;68
95;40;76;95
44;64;79;64
95;40;64;87
44;64;63;32
64;55;68;55
48;79;32;72
63;56;79;32
64;47;48;87
24;76;39;36
68;22;48;72
55;36;73;22
36;75;24;32
60;16;52;59
16;71;26;32
79;24;64;63
24;70;20;48
68;26;32;64
63;48;79;32
64;47;64;79
32;64;63;48
86;32;64;79
32;76;32;40
87;36;48;79
63;40;72;47
56;63;48;79
55;64;71;40
72;39;52;87
36;80;87;42
64;63;68;79
48;95;40;72
95;40;78;87
40;84;54;48
86;38;64;79
32;87;55;64
80;38;52;79
44;56;79;32
64;43;64;55
32;79;28;52
79;32;48;76
63;40;63;32
48;63;36;64
71;32;79;43
52;55;56;79
32;72;47;32
79;24;64;47
40;79;36;79
36;52;63;32
40;75;39;32
68;24;44;56
55;40;63;20
48;63;36;64
79;36;79;32
68;39;56;79
32;78;63;36
72;39;64;79
36;82;47;36
92;36;79;55
64;79;64;87
40;88;79;40
80;63;64;95
48;95;59;40
88;63;72;95
40;90;79;48
92;40;72;87
44;76;79;63
48;95;48;95
55;82;79;36
76;63;52;72
87;52;87;38
64;91;48;95
36;84;39;64
79;52;79;40
82;36;68;63
36;79;34;52
76;32;48;79
24;64;55;20
56;47;36;71
36;40;63;16
48;47;48;63
16;66;34;40
66;30;36;69
63;48;79;16
56;39;48;71
23;64;63;32
48;63;48;79
55;64;63;48
76;39;40;76
79;32;87;63
40;95;36;64
87;40;64;95
47;84;87;40
76;79;48;86
87;48;82;71
64;95;44;76
95;48;80;95
48;89;79;48
76;48;76;79
48;86;79;40
86;40;40;76
95;36;87;36
64;63;64;79
63;48;87;63
48;95;36;72
87;48;79;40
76;43;40;78
63;48;87;44
52;63;40;77
63;48;87;32
72;36;64;63
36;64;47;32
66;55;52;71
36;64;63;48
87;32;64;63
32;74;55;40
76;32;48;71
53;40;79;32
64;47;48;63
40;79;43;32
76;55;40;79
30;70;63;40
79;47;64;79
36;91;32;64
85;36;72;63
44;72;91;79
48;95;40;76
91;44;84;95
48;95;36;80
95;48;85;79
48;95;48;86
55;72;95;79
52;95;64;76
95;40;68;95
79;64;95;71
48;95;71;48
92;40;72;71
36;95;32;64
92;40;79;55
48;79;32;64
63;52;79;55
40;87;32;48
79;32;64;79
54;48;79;32
56;63;40;68
79;32;71;47
32;79;26;52
71;37;40;71
55;48;70;30
64;63;52;79
63;48;63;32
64;63;32;70
79;32;64;79
32;72;63;48
78;38;64;79
36;87;32;48
72;63;40;66
79;64;87;32
68;51;64;79
40;78;63;32
72;71;40;70
87;40;64;87
63;64;87;38
64;95;40;82
79;64;95;40
76;71;48;92
79;64;90;55
64;79;40;64
87;44;64;87
71;52;95;55
52;95;40;64
87;36;72;63
32;86;32;64
63;32;71;40
79;32;78;34
64;55;52;79
32;71;47;64
63;52;63;40
72;24;74;43
36;79;40;79
36;79;32;68
39;66;55;64
55;52;63;48
79;48;79;36
68;39;68;43
52;63;52;87
40;79;48;95
40;79;48;87
36;87;42;64
71;64;79;64
79;48;95;48
95;44;95;46
72;63;76;71
76;71;76;95
64;95;64;90
60;84;75;76
103;48;103;48
90;54;94;63
68;79;64;95
68;79;68;79
48;95;52;110
64;95;48;94
48;82;63;72
71;72;79;64
95;40;95;50
68;47;72;63
56;71;64;79
36;87;45;64
79;52;79;48
91;36;87;47
64;63;64;63
48;79;40;87
36;87;32;79
28;70;47;32
68;37;64;47
40;79;32;32
64;37;48;63
32;79;30;64
63;52;63;48
79;38;64;64
87;36;85;63
40;87;32;80
63;64;87;55
48;95;48;87
95;64;88;63
64;95;48;95
79;64;80;87
48;95;48;64
88;50;64;79
79;64;87;40
84;51;68;79
48;95;44;64
86;53;84;95
44;74;63;64
95;40;64;79
44;87;40;52
87;48;68;87
61;64;95;32
64;79;52;87
55;64;87;34
64;63;48;95
32;76;63;32
82;47;64;79
32;87;43;40
76;47;52;78
55;40;79;36
56;55;48;79
32;79;38;32
68;32;40;63
25;64;63;20
56;39;20;60
63;32;78;55
32;79;32;66
87;32;79;47
52;63;64;79
32;74;40;48
86;32;72;63
48;87;36;64
79;36;79;55
48;79;40;72
95;48;87;87
36;95;63;72
103;64;98;63
64;95;48;80
87;76;95;53
72;95;48;64
95;48;64;95
44;68;63;36
68;55;64;87
34;87;36;64
87;36;64;79
36;83;47;52
77;47;64;79
32;87;32;68
79;32;68;63
40;79;32;48
74;24;64;47
20;79;20;56
79;20;60;47
32;63;20;52
70;20;52;77
18;64;63;32
56;35;52;63
32;70;22;48
71;29;48;63
32;78;22;52
63;48;79;47
32;87;32;52
78;32;52;79
54;48;79;47
64;63;64;79
48;95;40;64
87;44;64;94
54;64;79;54
64;87;40;76
87;64;111;44
72;63;80;95
64;95;71;72
103;48;95;95
64;111;48;76
95;52;92;71
64;95;52;68
95;44;95;63
64;95;40;68
95;64;95;50
64;95;40;68
95;40;64;87
44;68;71;40
44;87;32;52
79;40;79;32
64;63;64;79
32;72;32;56
71;28;60;63
36;78;47;32
64;39;32;60
79;24;79;36
79;32;64;63
40;79;38;40
68;35;52;79
32;77;30;56
63;36;64;79
36;79;46;64
87;48;78;55
64;63;48;74
63;64;74;63
40;87;32;72
87;40;64;79
40;91;40;48
76;55;64;87
79;40;74;95
40;84;79;40
80;63;52;95
62;64;79;48
92;55;68;95
48;95;48;74
95;40;95;63
52;95;40;74
95;48;78;79
32;87;36;64
87;32;66;63
40;63;52;79
32;66;63;48
87;32;78;39
48;79;24;66
63;56;55;40
79;24;60;79
29;70;32;40
66;37;48;68
31;56;39;48
79;32;54;79
39;52;79;24
64;47;36;74
55;40;79;32
52;79;36;70
79;36;72;59
40;79;55;36
68;47;56;79
40;87;32;70
87;36;72;71
48;91;54;68
87;44;76;79
48;95;47;64
103;64;84;63
44;95;48;102
55;76;95;44
64;95;64;95
52;76;95;59
64;87;40;82
95;48;72;87
47;76;95;40
64;71;64;79
49;64;79;48
87;53;64;87
36;87;47;68
63;64;79;32
72;32;74;79
32;87;32;56
79;32;74;79
32;79;45;64
63;36;52;79
20;78;28;32
64;63;64;75
63;36;79;38
64;63;48;64
79;32;64;63
32;87;39;44
79;32;79;55
40;79;39;40
64;39;48;87
32;74;39;64
79;48;76;87
36;86;37;64
87;40;74;71
64;87;79;48
80;63;36;64
95;42;86;79
64;95;64;95
79;64;100;54
68;79;72;95
48;84;44;64
95;44;72;63
48;95;40;72
79;72;79;48
86;63;64;87
40;95;36;48
78;63;48;72
79;36;64;78
63;52;79;32
70;47;52;79
79;36;85;39
52;63;52;79
32;71;63;32
68;46;48;79
36;63;32;79
16;79;32;56
79;24;64;63
20;79;32;64
63;32;78;63
40;79;32;56
79;32;68;79
32;87;48;91
32;79;46;64
95;36;52;87
47;64;79;36
76;47;48;93
38;79;79;64
95;48;84;55
64;79;40;72
95;44;87;71
64;95;48;68
87;79;64;95
52;84;63;64
95;64;84;71
72;95;64;95
64;95;72;111
64;95;64;95
48;95;55;80
71;68;87;52
95;48;95;40
95;40;87;34
72;47;68;63
64;61;64;79
36;87;32;64
79;32;79;32
79;24;71;47
52;63;48;71
32;79;32;68
63;40;79;32
68;20;71;31
64;37;56;59
32;79;36;79
32;79;32;64
55;48;79;36
64;47;64;63
48;79;52;79
48;79;40;84
42;78;63;66
87;48;95;40
68;55;72;40
68;63;64;87
40;82;55;72
63;68;87;48
79;64;95;48
95;68;95;64
95;48;101;48
80;63;80;79
68;63;80;71
64;95;48;84
78;64;95;48
95;44;82;71
64;63;68;79
48;95;48;95
40;95;40;76
87;40;78;47
64;79;48;93
34;86;32;36
72;36;36;68
63;40;79;32
64;31;66;47
36;79;32;64
63;32;40;68
79;32;79;47
48;63;52;79
36;87;32;48
95;40;74;54
48;79;32;64
79;52;87;63
64;79;40;84
63;72;59;64
82;59;48;92
50;68;95;54
68;63;64;95
54;92;46;80
95;44;86;63
64;95;64;80
79;76;71;64
95;55;68;95
58;72;87;48
76;63;64;84
79;52;80;87
48;95;48;92
55;68;79;64
78;63;76;79
48;94;40;68
87;36;64;87
36;72;79;32
64;63;64;79
40;84;32;56
79;32;77;55
44;87;32;70
63;48;74;47
40;79;43;48
86;32;68;55
36;79;24;70
63;32;56;63
32;71;35;36
71;55;64;87
46;68;79;40
87;32;64;78
47;64;79;32
64;63;68;79
48;87;42;72
87;44;76;63
48;87;47;48
78;55;64;87
36;87;63;64
87;48;68;79
48;95;59;68
95;52;64;92
87;48;95;55
64;95;50;72
95;64;64;95
61;68;95;44
72;63;48;86
79;48;95;40
72;42;52;79
42;68;79;32
64;79;32;68
79;32;70;87
36;87;63;48
78;55;52;76
63;40;79;47
52;63;32;79
39;48;79;20
56;47;40;64
71;28;48;78
43;64;63;32
64;63;40;79
36;64;63;32
52;63;36;64
63;32;79;39
36;79;32;79
32;74;55;48
63;36;79;47
48;79;48;87
32;70;79;48
84;40;64;78
95;36;95;63
64;79;64;95
40;86;51;64
84;63;48;78
87;64;95;40
72;55;64;80
79;64;86;59
64;87;76;95
48;92;71;64
88;44;82;87
48;95;44;84
95;64;87;63
48;95;40;78
87;40;64;87
36;78;79;48
86;47;68;63
36;87;32;48
79;39;32;66
79;32;79;24
64;63;32;87
47;40;79;32
64;43;64;63
32;79;28;64
55;52;63;28
48;63;24;52
79;24;52;63
20;70;39;32
56;55;32;71
55;40;79;36
40;63;32;64
79;40;79;43
52;63;40;77
79;64;87;40
76;79;48;78
95;40;95;71
64;95;64;95
48;95;54;64
86;63;68;95
48;95;71;48
72;71;68;86
79;64;95;79
64;87;64;95
52;94;71;48
68;79;64;103
63;72;95;63
64;79;64;95
40;86;79;36
64;63;48;87
46;84;43;48
70;47;56;87
32;76;47;48
70;45;32;64
79;32;79;28
48;63;52;79
32;64;34;32
64;47;32;68
63;24;79;39
36;79;24;44
79;20;66;47
36;79;32;78
63;32;79;47
48;63;40;79
39;78;38;64
79;36;72;63
48;87;55;64
87;71;48;95
54;68;87;40
80;46;72;95
40;82;79;52
86;63;64;95
87;68;87;48
72;71;86;79
52;95;71;64
92;54;68;92
71;68;103;47
64;79;64;76
95;40;93;79
48;95;40;82
87;40;91;79
48;80;63;64
94;36;95;63
64;79;64;95
40;68;79;44
64;63;48;95
36;64;63;64
79;48;79;63
40;79;32;64
63;52;68;63
32;79;34;48
79;26;52;63
32;79;30;64
45;66;47;24
64;63;48;71
47;64;39;36
76;43;44;79
32;64;47;32
64;47;48;79
32;68;79;36
74;32;64;79
32;64;63;32
64;63;32;64
79;44;52;76
63;64;76;63
48;79;40;68
87;45;78;95
48;95;48;95
62;92;63;68
111;64;95;79
64;95;71;68
92;62;64;92
87;64;84;71
64;87;64;95
55;72;79;48
94;48;64;95
40;93;79;64
95;44;64;95
36;87;47;48
86;40;76;63
40;79;36;48
74;47;56;79
32;87;32;72
63;48;63;36
70;28;48;79
32;79;39;32
64;55;40;60
63;56;39;32
70;20;48;79
45;40;79;39
40;79;32;56
87;32;52;79
32;68;47;32
64;47;56;79
38;76;63;36
68;55;64;79
46;64;87;63
64;95;64;95
71;64;95;50
64;95;64;95
52;72;95;64
95;64;103;48
88;60;84;63
64;63;80;40
63;78;63;80
79;64;95;40
95;40;95;36
92;36;87;42
64;63;64;87
40;87;48;95
32;95;36;76
52;64;79;48
79;48;87;32
72;36;72;63
44;79;40;85
32;79;32;64
47;56;63;40
71;32;79;24
68;24;74;47
48;47;56;47
44;63;48;71
32;79;26;64
55;64;45;68
47;64;79;36
87;32;79;47
64;63;64;79
40;95;40;76
71;64;95;48
95;48;95;36
86;40;86;54
64;71;64;78
64;79;64;95
48;95;48;72
87;64;95;48
95;48;90;50
80;63;80;79
64;79;68;95
48;95;52;94
60;76;79;76
79;64;95;52
95;40;80;48
68;63;40;85
79;64;79;48
87;40;74;87
63;64;95;61
48;84;51;40
78;32;72;55
48;87;32;64
87;40;72;47
48;79;36;64
63;48;64;79
32;74;55;48
87;36;64;79
46;70;32;44
68;43;48;79
47;48;78;47
32;79;32;66
63;40;74;63
48;63;40;87
55;64;87;36
64;63;40;48
85;36;64;79
32;87;45;48
78;36;64;79
32;87;55;64
95;42;48;95
61;76;79;40
72;79;64;95
44;92;79;48
72;79;64;95
48;84;36;68
91;44;64;91
51;64;79;32
64;63;52;79
32;82;43;56
87;36;52;87
47;68;63;32
64;63;40;87
47;64;55;32
70;39;48;79
32;76;43;32
71;47;48;79
32;68;79;32
52;63;32;71
47;52;63;24
64;47;64;63
32;79;28;52
75;38;48;79
32;76;35;64
79;32;79;55
48;79;32;48
83;34;64;79
40;64;63;52
76;55;64;87
32;79;32;48
82;32;68;63
48;79;40;48
85;32;70;63
52;87;46;64
71;64;95;40
87;55;68;95
48;103;40;90
71;64;86;79
64;103;52;80
79;76;95;48
68;87;64;103
71;90;95;48
80;95;48;68
95;40;87;71
64;95;52;72
91;55;64;95
40;95;48;72
87;48;94;32
64;63;68;63
48;87;32;86
47;74;79;32
64;63;32;78
71;48;79;28
56;79;32;64
79;34;36;79
42;44;79;47
36;85;32;79
55;64;87;47
48;79;52;87
79;48;87;42
64;63;64;95
40;87;79;40
64;79;64;84
87;44;95;87
52;103;48;93
87;48;103;44
86;63;68;95
79;48;95;54
64;99;79;64
92;44;86;95
63;76;62;64
94;44;76;95
50;80;46;64
84;46;76;79
48;95;48;95
61;64;95;44
68;87;40;72
95;36;84;71
44;87;36;64
93;32;87;47
48;79;40;87
32;72;54;32
66;63;48;79
32;74;63;32
64;63;52;79
32;79;38;48
74;38;50;71
55;64;55;32
64;63;32;52
79;24;74;63
32;87;32;79
63;48;87;46
48;79;40;87
32;68;63;32
64;59;48;95
32;87;79;48
80;55;68;79
40;86;55;76
79;64;95;48
80;95;48;90
79;64;92;71
64;95;64;86
95;50;64;103
68;72;111;56
72;95;52;80
95;64;95;63
64;95;48;84
103;64;95;50
68;87;64;111
71;48;80;63
64;63;64;87
40;95;63;40
72;63;64;95
44;70;87;44
64;79;52;95
36;86;47;64
95;36;74;47
48;79;55;64
76;47;52;79
32;85;79;40
68;63;64;79
32;74;63;36
86;32;64;63
32;79;32;68
87;52;79;63
36;87;87;52
95;40;87;79
48;78;87;48
68;79;64;95
40;95;79;64
80;79;68;95
63;86;55;72
95;48;95;71
64;95;63;64
88;63;74;88
95;48;110;52
80;69;64;109
52;84;71;48
72;79;48;95
79;64;95;55
64;79;76;95
52;72;95;64
90;63;80;95
52;88;62;52
86;44;84;79
48;95;75;64
95;48;95;51
64;79;40;90
79;64;95;63
64;95;44;72
79;64;87;79
40;91;55;64
87;44;76;79
44;78;34;72
79;36;87;63
48;87;53;40
78;43;52;79
32;79;55;48
70;55;48;79
63;52;87;34
52;63;32;56
82;32;76;79
40;95;40;82
79;44;95;79
52;95;48;95
62;64;79;44
68;79;80;95
48;78;79;52
88;55;68;95
79;48;111;48
72;79;48;76
95;40;76;95
48;95;48;94
71;64;95;48
80;54;64;95
44;72;63;36
78;46;56;95
32;86;79;48
86;42;52;79
48;63;32;78
36;68;63;40
79;32;87;16
74;38;56;55
32;79;36;79
32;79;32;79
43;64;55;52
79;32;79;32
77;28;64;45
52;43;64;24
52;38;48;63
32;79;32;71
37;64;55;48
78;32;68;26
64;39;56;63
36;79;40;79
32;86;32;64
63;48;87;40
74;45;70;63
52;79;64;79
48;95;40;95
46;82;63;64
87;44;80;54
64;63;80;55
68;55;82;55
68;71;64;79
48;95;48;78
71;68;95;64
95;64;95;40
92;40;82;55
68;63;64;79
48;95;36;64
63;52;87;36
79;44;72;43
70;47;64;55
64;63;64;63
66;55;64;71
52;79;64;71
48;79;64;79
52;79;64;87
44;64;79;40
76;43;64;79
36;79;63;40
70;46;64;79
32;91;47;40
64;63;40;79
63;48;79;47
48;91;48;95
52;64;95;63
64;79;52;95
36;80;79;64
84;63;72;79
48;95;52;72
95;52;48;103
40;86;71;48
82;63;76;95
56;64;95;48
64;87;68;95
48;95;52;80
95;48;80;79
64;95;48;68
93;55;52;95
79;48;95;87
50;86;55;48
78;55;64;91
79;48;80;87
40;94;63;52
82;42;64;95
32;79;55;48
95;40;86;63
48;87;38;64
95;48;91;32
68;42;48;87
24;83;26;52
68;43;40;77
55;52;63;22
48;71;32;64
79;32;70;79
32;79;44;64
79;38;56;79
32;80;63;32
64;63;48;86
36;72;55;32
74;45;32;64
79;36;87;63
48;95;48;94
79;36;80;40
64;79;48;87
79;40;84;47
64;63;72;95
40;87;59;68
95;48;64;95
40;95;55;64
103;48;64;95
40;86;71;64
86;61;76;79
48;95;48;72
95;48;76;95
62;48;95;79
48;80;51;48
68;79;32;64
87;42;48;93
34;68;63;32
64;71;32;68
79;36;79;39
48;63;48;64
63;32;79;55
32;63;64;79
32;84;63;32
68;32;44;79
20;73;63;32
84;32;48;79
47;64;55;32
56;63;64;79
32;82;63;36
72;63;76;95
50;64;87;44
68;63;78;95
48;64;95;40
64;87;64;84
55;68;63;64
87;68;87;61
72;95;68;95
48;95;52;64
111;48;95;55
68;95;48;80
87;64;111;52
72;79;48;95
63;76;71;64
92;54;48;95
46;68;71;36
72;55;74;79
40;87;63;48
78;47;64;72
79;32;95;42
64;63;40;86
79;32;68;63
32;84;39;40
68;63;52;87
24;87;32;76
79;52;85;71
32;87;32;72
63;48;63;32
64;47;64;79
36;68;63;32
64;79;32;85
36;64;95;36
76;34;70;79
36;95;45;64
95;48;82;63
48;95;52;52
80;63;48;95
36;76;79;48
95;40;64;87
52;64;79;40
76;55;44;76
87;40;87;60
64;95;64;95
44;80;87;64
86;55;68;87
48;95;40;64
95;48;87;79
48;95;50;68
95;52;76;79
40;95;52;52
78;63;64;95
39;70;63;44
68;55;44;70
79;32;68;63
32;87;40;87
32;74;32;64
63;32;76;63
32;79;28;40
68;39;48;68
47;36;79;30
48;63;24;44
71;24;78;46
40;79;32;79
47;48;87;33
44;63;32;64
79;32;83;63
36;87;36;76
79;32;95;44
64;79;64;95
36;87;79;48
76;71;52;93
44;72;79;48
82;52;48;95
46;72;63;36
64;79;64;95
40;82;63;64
92;59;64;92
79;64;95;55
68;95;48;91
79;64;95;59
64;95;63;72
95;50;92;63
64;95;53;64
91;54;72;87
40;95;40;84
79;64;79;40
64;87;64;95
36;91;32;76
87;36;87;63
48;95;47;40
74;47;48;87
32;66;43;32
70;32;32;79
18;64;63;32
44;63;52;63
32;79;39;54
78;32;64;79
32;77;63;32
64;79;32;79
79;32;74;63
48;79;36;66
87;47;48;94
63;72;63;40
64;79;48;48
78;45;64;79
40;95;38;80
95;40;64;95
71;48;103;48
76;63;52;95
56;72;95;71
64;95;64;111
67;68;79;68
92;67;72;80
95;40;74;95
44;95;44;76
95;36;82;63
64;87;64;95
61;72;95;40
64;79;64;95
44;76;55;48
70;63;64;87
52;68;87;63
48;79;32;52
84;24;70;79
32;79;32;72
79;34;64;79
40;64;63;36
48;79;32;70
63;48;63;32
70;43;48;79
32;87;40;79
32;87;36;79
39;74;36;72
38;76;39;68
63;44;87;32
68;55;64;79
36;95;64;87
48;95;48;82
55;76;79;68
79;72;79;68
95;48;95;51
68;79;76;95
64;95;64;103
48;103;64;94
66;92;58;88
63;88;63;72
87;64;95;48
80;63;80;54
68;63;72;87
64;79;64;63
64;71;66;79
64;79;64;63
64;61;72;47
68;51;64;63
48;63;64;63
48;63;48;79
32;79;40;79
32;79;32;72
24;75;28;64
47;52;47;52
55;56;63;48
79;32;79;31
74;39;56;20
77;34;64;46
52;55;64;79
32;79;32;79
47;68;79;48
79;36;94;32
95;40;85;63
48;95;36;78
95;64;87;44
64;95;48;64
87;71;52;95
44;80;63;64
92;62;48;95
79;48;103;48
72;95;44;64
95;48;80;63
64;87;68;95
48;80;79;48
76;63;48;68
87;55;64;95
40;95;40;89
59;64;63;52
78;61;36;72
87;32;76;79
32;94;36;48
79;47;64;95
32;87;32;79
55;52;63;32
64;55;40;79
32;79;55;32
68;45;32;71
47;64;79;24
76;28;68;79
26;76;63;32
64;63;48;79
32;79;47;56
79;46;56;79
55;48;63;32
64;79;48;95
32;79;63;40
76;55;48;95
32;79;79;47
64;71;48;72
95;51;76;95
48;95;64;95
40;80;71;48
88;50;64;95
60;64;84;95
48;88;50;72
94;47;80;79
64;87;64;82
95;48;92;55
64;95;64;95
40;89;71;64
87;63;64;94
54;64;95;38
64;79;36;84
63;48;79;47
40;87;32;78
63;40;79;32
64;47;48;87
38;64;79;32
52;55;40;79
20;62;55;32
56;79;39;52
79;34;64;47
48;63;47;48
76;30;48;79
63;32;64;63
40;75;55;48
79;36;64;87
55;48;87;63
40;87;40;86
71;48;95;45
64;95;64;95
40;90;79;64
95;59;84;95
52;94;48;94
63;76;103;71
64;95;64;76
95;52;64;103
48;80;95;40
80;79;64;95
55;80;79;64
90;71;40;95
79;40;95;87
48;95;40;89
71;64;95;48
76;63;40;78
79;36;82;87
40;95;36;76
79;48;79;38
72;38;64;79
32;79;36;64
79;32;70;79
32;76;47;44
70;47;64;79
32;70;63;32
56;63;64;87
20;72;63;24
52;63;48;79
24;76;24;64
79;36;79;63
40;95;45;64
87;63;32;86
79;36;79;63
64;95;40;95
79;48;95;44
64;79;48;93
63;64;79;48
76;55;40;89
51;64;87;36
64;87;40;95
63;64;95;44
64;95;64;95
48;94;79;64
92;63;68;95
48;95;71;68
103;64;103;63
64;95;48;84
95;64;95;48
72;87;40;80
94;40;82;79
40;95;63;64
86;55;48;87
63;40;87;36
64;63;32;87
46;52;79;36
76;55;32;86
37;60;63;36
70;38;32;79
24;64;63;32
68;43;32;76
31;48;63;32
64;39;66;79
32;79;55;44
83;32;70;71
32;79;32;70
87;32;87;63
40;95;34;64
87;36;68;87
44;79;44;87
79;52;91;63
48;95;59;64
84;63;48;94
87;64;95;63
64;103;64;76
95;54;88;103
50;98;63;72
94;71;68;111
48;103;48;101
55;80;79;64
86;71;48;95
54;68;75;48
72;87;52;92
55;64;87;40
87;36;87;79
36;87;59;64
79;63;68;95
36;91;40;52
85;51;68;79
32;78;63;36
68;63;32;72
63;32;79;63
32;79;48;93
24;74;63;40
72;43;32;77
63;32;79;55
48;63;64;79
55;56;79;36
64;54;64;87
42;74;63;42
64;63;40;91
36;70;87;51
64;79;48;95
40;72;87;46
64;63;68;95
44;78;95;55
72;79;40;82
79;64;95;87
52;103;56;72
95;59;84;103
68;80;103;75
64;110;64;90
111;64;111;76
64;95;52;80
100;67;64;103
44;95;59;72
95;64;95;79
64;79;64;95
42;91;55;64
95;40;82;63
52;95;46;64
86;34;68;63
40;71;32;79
55;52;79;32
52;79;32;78
79;47;48;79
32;87;46;56
79;32;64;79
32;87;32;87
63;48;72;87
63;64;55;36
74;47;64;95
55;64;55;36
68;63;48;87
32;95;40;84
54;64;79;40
68;63;70;87
36;86;87;48
76;79;40;91
59;64;95;50
72;63;84;95
48;95;71;68
94;67;80;103
48;86;87;52
76;75;76;95
60;76;79;52
80;87;48;95
47;72;95;40
86;48;86;63
48;95;32;90
79;64;95;40
64;79;38;72
87;36;64;79
44;64;87;32
76;47;36;68
63;32;78;63
32;79;32;64
79;33;64;63
32;77;32;76
63;40;87;32
48;79;36;87
20;70;63;48
74;55;32;76
47;56;87;32
52;79;55;36
64;63;48;83
63;52;85;79
36;87;38;64
84;44;48;95
32;95;36;92
40;94;40;86
47;78;63;68
79;64;95;40
86;61;72;63
82;62;78;95
44;103;48;90
95;64;95;40
79;72;87;48
71;72;79;90
63;82;79;72
87;64;103;48
84;71;64;79
76;63;68;95
48;79;64;95
40;95;40;87
44;87;53;68
55;70;55;64
59;68;63;52
79;32;79;32
64;47;64;55
48;55;52;63
40;79;40;79
24;79;40;79
32;79;36;79
36;79;40;70
63;48;63;32
79;48;79;55
91;36;76;32
76;55;64;63
48;79;48;95
36;95;48;95
40;87;64;95
48;95;64;95
48;95;48;90
71;68;95;64
95;48;90;50
80;63;72;87
64;87;64;103
52;94;48;82
79;64;95;48
100;54;80;79
48;103;48;103
49;86;63;76
95;52;80;95
48;103;48;95
48;68;95;44
80;48;74;87
40;91;46;76
87;47;36;94
47;68;63;36
64;79;52;79
32;87;55;56
85;47;48;87
32;74;55;36
58;63;32;79
38;64;63;32
64;63;48;79
24;79;55;32
64;47;32;66
63;32;79;34
48;55;32;79
34;64;79;32
64;79;32;76
79;38;72;79
40;87;40;87
46;64;45;48
76;63;48;95
36;90;47;48
72;79;48;95
36;80;79;64
95;52;103;44
74;79;64;95
50;92;52;76
111;48;103;63
64;103;64;102
71;72;95;52
68;87;52;72
95;71;68;95
40;95;46;68
95;40;90;63
64;95;42;72
95;48;78;79
36;94;40;87
44;64;79;40
74;47;44;87
32;68;79;32
48;79;32;78
39;52;47;52
78;47;36;79
24;76;55;32
64;55;36;79
38;48;79;32
52;55;64;79
32;79;63;52
80;38;64;87
36;79;71;32
64;63;48;87
71;40;79;63
48;79;52;93
47;64;95;40
64;79;48;95
42;72;45;64
92;40;64;94
71;48;95;52
68;79;64;103
70;64;95;48
68;95;64;95
79;64;95;60
64;95;64;107
95;64;95;58
76;87;48;92
71;64;95;95
44;103;44;76
94;63;72;71
64;87;42;78
87;44;95;42
64;71;40;87
47;64;79;36
78;38;68;79
32;79;63;32
64;63;32;64
71;32;79;43
56;79;32;78
39;52;55;36
68;55;36;79
24;78;79;38
64;63;32;56
79;24;79;44
64;47;36;79
47;64;79;55
64;55;48;95
40;85;43;68
95;40;95;44
64;95;55;44
80;63;48;90
63;64;95;48
64;95;52;64
94;47;64;88
52;88;63;52
86;63;84;71
64;95;95;64
90;79;86;79
72;95;64;92
95;48;86;95
48;95;53;64
94;58;64;95
40;95;40;86
63;64;95;47
52;87;40;90
79;36;90;95
36;95;36;76
87;38;86;63
48;86;32;72
55;48;87;32
72;39;40;79
55;48;79;43
52;63;32;79
24;68;47;32
52;47;32;74
55;44;79;36
40;79;32;72
79;32;78;79
32;87;55;48
76;71;48;95
50;78;63;64
86;53;78;95
40;94;40;90
63;64;87;54
64;95;48;84
95;40;87;79
48;95;55;64
95;54;90;79
64;95;48;84
95;60;86;95
64;103;95;64
88;79;88;95
64;111;64;109
66;84;71;76
103;52;64;95
70;64;95;40
68;79;48;95
40;78;87;40
68;63;40;94
36;86;79;40
64;79;44;79
63;64;91;36
52;87;32;68
79;28;76;79
32;87;36;74
63;44;86;32
64;47;24;74
55;40;63;32
78;28;32;70
47;48;79;39
36;79;24;72
47;56;87;32
52;79;48;85
47;64;95;40
64;79;40;86
55;64;79;48
76;47;64;95
52;64;95;79
64;95;64;103
48;95;95;64
64;95;65;64
84;79;48;98
63;80;54;68
103;48;86;103
60;86;95;64
80;95;64;102
63;90;48;80
95;48;95;87
48;95;64;103
54;64;95;40
82;40;40;87
40;68;47;40
76;32;79;47
40;63;36;78
37;68;63;32
64;63;40;79
28;79;47;32
64;63;48;79
47;64;63;32
64;63;40;87
47;64;84;63
32;85;79;42
48;87;40;86
46;64;79;36
68;59;48;82
63;36;87;79
32;95;44;72
87;40;84;63
64;79;64;92
58;80;95;63
72;71;40;95
63;76;95;64
80;79;48;92
71;76;95;48
72;95;54;64
80;87;48;80
92;48;86;95
48;103;63;76
95;71;48;100
50;80;95;64
95;48;68;95
40;85;63;40
64;87;32;84
63;64;95;46
64;71;44;64
90;32;87;59
64;63;72;95
32;82;87;40
78;42;64;87
32;79;63;48
82;32;64;79
32;87;24;64
79;40;76;79
32;87;44;64
79;32;64;63
32;87;55;64
79;38;68;95
36;86;71;64
76;63;48;68
87;38;72;87
36;91;44;64
84;63;68;95
48;87;40;72
95;48;95;50
68;79;48;95
54;72;95;71
64;95;64;95
64;95;64;103
48;103;64;102
50;98;63;96
71;80;79;68
94;55;88;63
72;79;72;95
64;95;64;103
48;95;64;95
44;95;48;95
40;95;48;90
51;86;48;72
79;64;95;44
95;40;82;42
76;63;64;63
64;79;64;95
36;95;48;95
48;95;48;95
32;95;40;91
36;87;38;64
79;36;85;47
68;63;64;79
48;63;52;79
48;79;52;63
64;71;64;63
48;79;64;79
48;95;52;93
50;88;59;72
63;76;87;68
87;64;95;48
95;55;86;71
64;87;64;95
64;95;72;109
48;103;64;103
52;100;59;92
77;88;68;80
95;64;107;52
88;71;76;108
69;80;87;48
76;95;64;86
87;64;111;48
84;63;72;95
79;64;95;44
64;62;64;91
79;48;95;71
48;91;71;40
84;36;84;63
40;95;40;87
52;74;63;48
82;55;64;87
44;76;63;40
64;63;48;87
32;78;35;64
78;32;64;87
24;79;32;66
55;44;79;63
32;87;47;64
87;36;83;79
40;95;48;48
72;63;64;94
46;84;71;40
64;95;40;84
55;76;59;52
95;52;64;95
40;90;79;64
92;59;68;95
52;84;79;48
84;79;64;95
54;80;87;64
94;63;72;103
58;92;79;64
94;87;84;103
52;96;48;92
87;48;103;79
64;103;48;80
95;48;92;87
48;95;63;64
95;44;72;95
40;86;44;68
87;40;95;63
40;79;64;95
59;64;95;59
64;95;44;76
79;48;95;79
36;95;36;72
79;40;87;87
36;87;32;80
79;38;72;95
32;87;39;72
79;48;87;79
36;95;38;68
95;40;76;79
40;91;40;86
63;64;95;44
68;79;64;95
40;84;63;64
80;55;76;95
40;95;50;76
87;48;95;50
64;95;48;103
60;80;55;76
95;52;95;79
52;103;64;88
79;64;95;79
64;103;62;82
111;52;92;79
64;95;64;102
54;80;79;64
95;48;68;95
95;64;95;53
64;95;64;95
44;80;79;64
72;63;64;95
40;76;95;49
64;79;64;92
60;64;87;63
40;95;40;87
55;52;87;36
48;63;24;70
55;64;87;47
52;63;32;72
79;47;52;87
39;76;37;64
79;43;64;87
38;68;63;48
93;32;87;79
44;86;44;68
87;36;68;95
32;95;63;44
64;79;48;82
79;64;95;79
36;95;48;64
88;49;72;95
36;88;79;64
101;48;95;63
64;103;48;84
79;64;95;95
64;111;64;111
71;92;95;64
96;71;84;111
68;96;71;64
94;71;76;103
63;92;71;64
80;79;76;95
40;95;46;68
95;44;92;59
48;95;63;44
72;63;64;95
36;92;44;64
87;32;86;79
32;87;40;82
55;64;79;48
72;47;52;86
39;64;79;32
48;79;48;79
45;56;79;43
48;79;32;64
79;32;79;32
56;63;48;87
32;76;63;32
68;63;32;70
87;32;87;63
64;71;48;94
39;74;55;64
