## File generated by myo_cap software 
## Available from github.com/ddantas/myo_cap 
## Timestamp: 2020-05-01_00-48-43 
##  
## EMG capture settings 
##  
# sampleRate: 2000 
# channelsPerBoard: 4 
# nBoards: 1 
# bitsPerSample: 12 
# ch0;ch1;ch2;ch3
296;268;228;200
180;168;152;148
159;143;127;127
127;135;124;127
80;84;96;100
122;93;80;95
108;84;72;72
84;88;80;72
90;92;80;72
72;80;82;76
76;90;90;86
95;95;79;95
103;102;72;64
64;68;76;86
88;90;68;56
48;48;56;68
91;86;64;64
82;79;63;44
72;79;79;79
67;52;64;68
72;78;84;84
95;63;48;48
64;87;68;56
56;64;64;64
78;76;64;40
40;36;32;40
52;79;32;40
76;87;63;58
40;40;64;84
95;42;68;95
82;64;52;54
48;63;79;79
48;64;78;68
56;52;64;64
72;94;84;68
68;76;78;68
64;64;64;72
70;70;56;48
64;68;79;86
90;95;95;92
84;95;103;103
107;79;64;84
102;103;96;94
92;80;64;56
52;48;76;95
92;95;95;95
95;95;95;95
95;78;70;72
106;111;74;64
88;95;64;80
98;102;80;64
64;56;64;64
76;94;95;79
48;52;68;92
95;95;82;68
72;72;72;84
95;79;71;48
72;95;95;103
103;101;72;79
95;103;96;84
80;72;64;72
111;71;52;64
88;82;84;86
94;95;95;103
110;95;79;87
72;64;68;80
102;87;52;72
84;107;95;79
66;64;64;80
94;103;92;64
56;64;84;95
103;48;72;88
103;95;84;68
72;95;95;62
64;76;80;72
64;64;48;56
84;63;44;64
88;79;55;44
48;72;95;95
79;79;79;52
64;107;95;79
79;109;102;88
88;92;92;94
111;95;70;64
64;92;110;96
72;68;64;64
72;80;68;64
64;84;95;79
48;72;92;72
64;64;64;68
86;91;90;88
88;95;79;62
56;52;48;64
72;95;95;95
79;64;102;95
69;52;72;84
94;95;95;79
64;64;64;64
80;76;64;72
72;95;95;87
79;95;68;56
72;103;95;95
87;79;79;70
70;68;64;56
64;72;80;92
95;95;95;95
72;80;95;84
64;58;67;63
48;68;86;95
94;80;78;80
72;68;64;48
68;95;95;95
95;95;92;102
111;79;64;72
80;72;76;80
94;95;79;77
79;64;64;80
103;79;56;64
86;95;48;64
103;68;63;48
68;86;80;76
84;87;95;95
102;90;76;84
111;87;87;68
64;88;111;111
100;84;76;82
102;111;111;111
110;108;96;84
80;82;80;88
102;95;95;110
104;110;98;92
84;106;111;111
111;111;111;123
123;127;127;127
127;112;104;100
96;108;127;95
72;80;84;119
111;95;103;119
104;100;100;96
111;111;87;68
88;100;92;92
106;111;106;92
80;80;88;98
98;110;96;84
88;100;110;102
98;111;95;64
84;111;95;79
64;76;92;100
102;94;68;64
56;64;72;94
94;72;64;48
64;72;95;95
95;95;77;64
64;95;111;95
95;94;72;64
72;76;84;95
95;63;56;64
92;71;48;56
68;88;95;95
95;103;84;80
68;72;95;103
95;103;103;98
88;96;103;103
88;96;111;111
103;111;96;74
72;92;102;102
100;108;111;100
80;72;92;100
96;88;68;56
52;48;64;64
64;64;48;68
76;93;87;72
72;72;64;44
56;68;95;79
63;48;52;64
68;64;64;64
64;64;44;40
52;78;79;70
64;56;76;87
79;79;79;87
95;103;88;72
72;88;88;80
68;64;64;68
90;87;95;94
80;68;64;64
95;52;64;88
95;79;60;52
52;64;84;95
95;90;64;66
95;94;100;90
72;64;60;71
79;95;82;64
64;72;95;95
75;52;64;84
80;68;64;56
64;92;79;54
48;80;95;79
52;52;64;92
95;95;84;72
80;95;95;95
78;72;88;100
111;95;95;111
119;119;127;111
111;127;116;108
104;106;123;123
111;78;80;88
88;100;96;96
111;87;64;72
96;111;111;111
111;118;100;80
68;64;72;88
100;102;98;92
84;76;80;80
68;80;95;95
95;95;72;64
84;95;103;95
111;111;111;106
108;119;103;82
72;96;111;70
76;108;111;74
72;104;111;111
95;86;64;80
104;111;64;72
96;95;79;64
80;72;80;94
95;102;80;72
80;94;103;111
107;95;79;66
72;76;80;106
95;95;66;64
92;103;100;95
80;72;64;64
72;92;95;95
103;102;80;64
64;80;90;103
107;109;111;111
108;88;88;96
96;111;79;64
104;58;64;80
103;95;95;103
100;72;64;64
72;80;90;107
103;95;107;102
84;96;100;96
84;72;68;64
72;95;79;48
64;88;95;95
95;95;111;111
111;108;96;88
76;84;98;103
103;111;111;111
111;111;96;74
76;72;92;104
111;111;111;111
119;108;88;84
92;111;111;96
80;72;84;88
92;100;92;72
80;80;76;68
68;78;95;95
78;64;94;95
56;64;95;95
87;52;64;64
64;72;74;76
92;84;82;80
78;95;48;56
76;92;84;64
48;64;64;64
64;72;79;87
95;94;86;64
48;48;64;64
80;92;87;79
95;88;82;72
64;76;95;58
56;64;64;74
90;95;75;48
64;72;76;64
48;48;56;70
79;79;79;90
72;64;64;84
95;48;86;95
95;95;103;95
64;72;80;82
92;95;99;103
111;64;72;84
106;102;88;80
100;87;68;56
64;95;64;58
48;64;88;84
78;95;95;71
56;64;64;52
64;95;71;52
48;80;86;95
79;54;48;64
90;95;95;95
68;64;64;76
102;95;101;92
90;103;88;92
94;107;111;111
111;111;111;106
102;119;111;76
80;111;111;100
88;76;80;84
98;107;103;108
107;88;76;94
96;96;94;80
64;56;64;68
95;95;56;48
68;94;88;92
94;103;95;80
80;84;88;88
95;95;95;111
110;102;72;64
64;80;80;92
88;72;64;64
84;95;95;79
48;72;95;87
48;95;95;70
64;64;52;52
76;92;95;95
103;71;60;64
80;103;103;100
100;98;92;76
72;72;68;68
76;95;95;94
72;72;72;90
88;95;95;94
94;100;102;84
72;84;76;84
76;88;64;64
76;95;70;71
56;62;71;71
56;64;72;80
84;95;95;94
72;64;80;84
95;95;103;107
88;64;75;79
58;64;76;94
90;109;95;79
64;64;76;84
94;94;80;72
72;80;84;84
86;76;68;64
72;84;76;64
64;52;40;42
44;76;79;40
48;48;64;64
64;87;87;94
95;62;48;68
94;95;92;95
95;87;95;103
111;111;110;96
96;80;72;92
109;111;100;84
84;111;95;102
84;80;80;94
92;84;92;102
111;107;98;84
84;111;111;108
96;88;80;88
111;79;79;79
70;64;64;72
111;79;64;64
80;88;72;76
82;95;95;75
52;72;88;95
92;76;64;64
76;95;95;77
48;64;84;95
75;64;84;95
95;80;64;94
68;52;64;64
90;95;79;75
56;64;72;95
79;48;64;84
94;86;94;92
72;64;64;64
95;95;54;64
107;91;98;92
80;72;64;71
93;64;60;71
52;64;64;72
76;94;95;95
95;95;107;111
111;111;118;111
106;96;80;72
88;111;95;95
64;80;84;88
76;84;86;80
76;90;80;76
64;84;90;72
72;76;90;95
84;64;64;64
84;95;95;95
95;110;103;80
76;88;94;109
111;87;64;76
88;111;64;72
102;111;111;111
95;95;72;72
111;111;111;102
88;100;98;98
110;111;111;111
119;104;88;84
88;92;76;64
76;95;107;100
80;64;72;80
92;107;111;111
111;111;92;88
100;96;80;80
68;72;72;72
103;95;88;76
68;76;95;95
103;109;95;95
70;64;64;64
80;76;82;103
95;87;103;100
84;84;80;82
76;107;87;58
64;84;100;94
72;56;48;48
64;95;87;55
48;72;94;95
84;86;95;95
86;95;95;88
100;110;111;111
95;91;78;64
72;104;111;87
64;64;88;107
111;108;92;80
80;92;107;100
104;111;110;111
111;111;111;111
119;110;100;98
88;96;106;96
80;72;76;72
84;95;79;60
64;90;84;84
95;87;52;64
92;78;64;48
64;76;78;76
84;68;64;64
87;95;48;64
90;88;86;78
72;72;68;80
95;95;95;95
95;72;64;56
52;111;79;52
68;103;95;69
64;56;64;90
103;95;70;68
64;80;103;79
64;64;79;103
98;72;64;64
80;103;87;52
64;84;92;84
72;72;76;90
95;82;64;64
86;72;56;56
68;80;95;95
95;52;64;86
95;95;76;76
92;75;79;87
95;102;80;72
92;95;75;64
72;94;111;95
64;88;111;103
76;64;64;68
80;103;79;56
64;80;103;95
79;52;64;72
90;88;84;90
92;95;103;103
102;88;88;98
111;95;95;64
80;103;111;111
111;100;84;68
64;92;110;108
111;100;88;72
92;94;102;106
111;64;92;106
95;64;68;80
107;95;103;111
111;110;108;88
84;88;80;72
98;107;103;109
92;94;111;111
108;104;104;111
111;118;104;80
88;119;91;64
108;111;79;70
64;88;100;100
76;64;72;88
95;84;72;64
76;95;95;103
95;95;111;111
111;111;102;96
96;111;111;111
123;111;95;78
72;96;119;116
100;100;111;119
95;80;108;119
119;82;72;84
106;96;84;72
100;95;64;68
106;95;95;103
111;100;80;92
100;98;96;84
88;111;111;95
72;72;84;111
95;64;64;64
76;80;95;103
98;100;98;80
72;72;76;88
88;95;94;94
107;111;103;111
111;95;68;84
100;100;100;80
64;76;103;107
84;80;94;102
109;111;79;64
80;88;98;111
108;111;111;111
119;96;96;119
111;78;76;68
72;110;111;103
76;72;98;111
64;88;111;111
119;110;84;72
64;100;111;95
83;79;64;72
96;90;80;76
80;111;79;74
64;68;92;103
106;111;111;111
95;76;64;84
104;110;111;78
68;110;111;111
108;88;72;72
92;88;76;68
76;94;92;107
95;95;68;95
88;88;88;88
98;88;74;76
90;103;95;107
111;92;80;88
98;84;88;92
100;100;92;80
72;80;103;103
100;64;79;86
64;64;88;88
92;78;72;80
94;95;84;68
64;68;68;64
48;40;40;70
87;76;56;40
48;68;87;87
61;64;90;63
64;95;63;48
64;80;84;64
48;48;64;72
72;64;72;70
56;68;66;64
68;64;87;79
79;60;79;95
94;72;56;48
48;44;48;64
82;91;87;95
95;95;76;64
64;64;64;72
88;95;44;64
84;84;72;64
64;95;79;71
87;95;76;64
72;84;88;72
68;64;76;90
72;76;84;82
87;66;68;72
64;44;40;52
72;78;87;84
68;72;76;76
72;64;86;95
87;79;70;60
64;94;95;95
87;64;64;92
111;103;92;80
72;103;102;92
88;76;64;64
68;90;95;95
66;64;76;88
88;86;88;95
110;103;111;111
86;79;64;72
76;80;103;111
95;64;72;96
100;88;72;56
52;52;48;64
80;84;84;72
64;64;84;79
56;46;40;64
68;64;48;64
87;87;78;64
48;72;95;87
95;95;78;72
64;64;72;86
95;44;94;95
71;71;66;48
72;88;95;95
95;111;111;111
111;111;119;127
126;108;88;80
72;72;96;106
111;104;80;76
98;88;76;72
72;88;94;95
84;76;68;82
95;95;88;100
95;72;91;68
79;95;72;64
95;94;80;80
76;72;68;68
86;95;95;79
56;64;64;82
95;88;72;68
86;95;95;95
95;95;107;103
111;79;64;80
88;92;111;111
95;93;95;111
119;100;80;72
88;96;102;111
111;94;76;64
88;92;80;64
64;80;95;95
95;90;88;95
95;56;68;103
103;109;108;100
84;68;76;100
95;95;111;79
76;84;92;100
107;106;111;95
74;72;80;88
80;76;103;107
111;100;84;76
76;84;84;88
90;68;64;64
72;88;95;95
95;95;111;111
111;111;95;83
64;96;119;95
79;76;87;103
111;84;72;87
79;68;64;84
111;95;103;95
76;74;64;64
64;80;103;111
79;64;64;84
111;103;107;102
92;88;92;88
84;72;64;64
68;95;79;48
76;76;80;95
95;95;79;52
76;88;88;80
92;95;52;64
95;95;103;102
100;80;80;86
107;107;111;111
95;95;72;72
108;111;111;111
96;96;111;119
87;84;96;96
88;100;111;111
111;119;100;96
96;106;111;79
80;92;88;88
80;92;84;80
80;76;80;80
88;103;91;91
95;103;88;72
80;80;84;72
88;84;82;84
80;72;64;48
44;64;78;95
95;87;60;64
84;80;92;95
62;64;86;95
95;64;80;92
98;107;95;64
92;95;100;94
90;98;84;64
94;92;84;88
92;68;64;64
78;88;95;95
95;79;68;56
84;80;76;88
94;107;95;105
98;88;84;80
76;100;103;111
111;95;111;111
100;84;80;80
92;88;96;94
80;80;92;111
75;68;84;102
107;111;111;111
111;86;68;88
96;111;95;64
72;94;111;111
79;64;68;96
104;80;64;64
52;64;64;95
71;64;76;95
79;95;103;111
95;66;68;94
111;111;79;64
80;92;111;111
111;87;74;66
68;96;110;111
111;106;90;84
96;80;84;72
80;111;71;48
88;98;94;76
80;86;95;95
103;110;100;96
98;111;111;111
111;119;116;118
127;124;118;110
104;100;104;110
110;88;68;64
80;72;84;100
103;98;80;80
111;103;104;88
84;80;72;72
92;78;64;64
86;95;71;52
48;80;95;95
95;79;66;56
64;68;90;103
95;60;56;64
80;72;56;48
48;64;64;79
86;64;48;64
68;78;91;86
68;48;48;68
87;95;95;87
56;72;80;76
68;64;72;87
84;72;72;68
84;90;84;76
84;68;68;72
78;84;78;86
95;95;103;103
94;76;64;64
90;80;64;64
90;87;95;95
95;80;72;94
95;91;95;109
92;72;68;88
95;95;68;91
110;100;76;64
64;64;72;72
76;76;95;95
95;95;95;103
110;92;84;84
88;103;88;80
80;68;64;76
80;72;80;90
95;48;64;80
95;79;63;52
64;72;78;68
80;68;56;48
64;64;74;87
76;68;64;64
72;64;56;64
64;79;76;84
82;64;52;48
52;68;76;68
64;40;40;56
64;78;79;79
79;79;95;75
56;64;80;76
80;84;64;52
64;86;94;91
50;76;95;62
64;90;95;95
95;95;111;111
111;88;72;64
64;72;88;88
90;88;80;80
80;84;68;64
76;95;87;71
64;68;90;95
102;103;95;95
70;68;92;111
87;68;64;84
111;111;78;64
72;88;98;111
111;79;68;64
82;80;88;106
91;64;64;80
90;95;103;88
72;64;64;64
64;78;90;95
87;48;88;95
103;103;106;98
88;64;64;64
68;72;95;95
87;56;52;72
80;88;92;95
95;95;79;64
64;100;102;94
80;64;72;80
80;92;84;72
68;64;48;52
76;93;95;95
95;80;60;87
95;64;91;64
64;64;68;72
76;72;72;72
68;72;72;84
94;95;71;52
64;84;95;79
69;56;76;76
95;48;64;76
80;72;76;72
64;64;64;64
68;76;95;87
71;48;48;64
84;95;95;95
95;100;80;76
84;95;71;52
72;72;90;95
95;70;52;68
102;95;84;64
64;72;82;86
84;68;72;95
95;87;68;52
56;64;92;88
84;76;64;48
72;82;64;64
64;82;95;95
95;79;91;79
64;72;100;94
100;100;76;64
52;72;92;95
70;72;102;107
95;103;111;110
88;72;72;80
106;110;106;108
106;96;92;88
96;111;95;79
64;72;88;109
79;64;72;90
90;72;64;64
88;95;95;79
67;64;88;86
80;80;95;95
103;107;107;104
102;111;111;111
119;88;78;111
110;92;80;84
88;76;64;64
52;92;103;86
64;52;52;64
82;95;95;92
107;79;95;98
72;64;68;84
109;79;56;72
103;95;110;95
74;72;92;103
107;111;109;111
110;98;80;72
80;82;72;72
68;64;68;72
64;52;44;56
82;87;52;40
64;90;95;75
56;64;95;95
95;64;64;84
107;52;64;64
80;86;95;58
64;80;80;80
95;95;95;103
92;72;64;64
80;95;54;64
95;87;70;65
64;80;103;95
74;64;76;90
107;95;91;79
87;68;64;68
76;95;103;92
84;68;68;76
95;95;95;78
64;84;111;79
64;80;92;102
107;95;103;111
104;88;80;80
84;64;64;64
52;64;72;80
95;79;79;71
52;64;72;88
95;95;88;64
64;95;95;95
95;111;111;111
106;111;111;79
68;84;110;95
64;64;76;100
111;64;64;76
88;101;95;95
111;95;95;79
72;72;74;64
100;111;111;111
104;84;68;68
104;111;111;106
80;68;64;80
111;64;84;100
106;94;96;92
84;64;56;64
84;92;76;64
64;64;52;52
64;72;79;72
64;56;64;86
87;91;86;94
92;76;64;64
78;68;68;86
94;63;48;64
72;84;95;95
95;87;95;111
95;64;76;88
111;79;86;79
64;84;94;110
111;111;100;108
111;92;80;76
88;76;64;72
92;95;87;68
64;76;111;79
52;72;72;88
103;56;50;48
82;87;48;64
80;76;68;84
94;95;95;95
56;64;84;95
48;82;95;103
103;88;72;64
68;72;84;95
79;64;94;95
79;75;66;56
68;76;103;95
94;88;92;88
68;56;71;70
64;80;95;90
76;64;48;48
64;86;95;95
95;64;84;95
95;88;72;64
72;90;95;95
95;95;111;84
72;72;64;72
68;64;64;64
72;95;87;95
95;92;107;95
95;74;70;64
84;90;100;100
100;80;72;68
76;80;68;64
64;64;48;64
76;68;56;52
48;52;48;48
56;87;44;32
40;40;32;36
40;40;44;60
79;34;32;44
56;74;79;63
42;40;72;87
46;56;94;79
44;48;64;82
95;79;48;48
68;72;64;54
71;63;63;79
87;58;64;72
84;76;64;48
64;52;40;40
64;74;87;87
92;94;86;84
90;94;95;102
95;56;80;102
103;96;102;111
110;106;108;111
119;117;96;72
76;68;72;90
111;107;98;88
80;64;64;56
64;72;80;95
95;87;75;56
72;88;98;95
76;56;56;58
48;68;95;95
95;70;56;64
72;68;72;94
95;72;64;84
84;94;95;95
68;60;87;95
95;103;111;111
95;72;92;106
111;95;72;64
88;104;111;78
68;64;76;94
109;71;64;88
106;95;95;87
72;68;98;110
111;71;64;68
88;90;111;79
64;80;92;92
94;90;72;68
76;82;88;88
76;64;56;64
80;95;79;58
52;48;74;90
80;76;76;68
64;64;72;84
76;95;79;60
64;52;60;50
44;64;76;90
68;58;84;56
48;40;40;56
72;68;56;48
56;64;64;56
56;48;36;44
64;74;70;52
48;40;40;48
64;70;79;47
40;48;74;79
79;48;68;79
40;48;64;74
78;84;78;64
64;64;52;64
86;84;95;79
79;48;52;64
76;72;80;86
90;87;63;62
52;64;72;95
95;48;80;95
60;48;64;78
92;79;63;65
52;56;64;76
95;44;64;72
86;92;95;95
103;70;64;68
95;95;52;64
80;95;79;95
111;96;80;72
88;100;90;80
76;64;68;84
95;48;86;95
95;87;79;67
64;76;107;111
111;111;111;119
111;87;72;80
92;111;111;79
64;64;80;80
84;88;80;68
72;68;64;72
64;64;64;68
78;95;79;79
68;71;63;54
64;68;64;72
82;68;52;48
56;48;36;32
40;44;44;40
56;68;79;79
79;74;56;48
72;87;93;90
84;80;64;64
76;90;95;95
80;64;52;48
52;48;64;93
95;58;48;68
95;44;64;86
95;87;79;62
64;64;72;80
68;64;68;95
79;48;64;94
95;78;76;91
100;76;87;88
68;95;88;72
76;64;64;64
72;80;68;64
88;40;48;66
82;91;87;54
44;48;71;93
64;52;44;64
95;59;44;48
72;72;72;64
64;56;48;40
40;64;79;79
79;44;48;68
87;84;76;64
48;48;64;64
56;48;56;56
40;62;56;36
40;36;52;72
79;79;72;64
52;64;64;76
79;55;32;64
79;84;91;95
71;52;80;90
95;95;95;107
95;64;88;109
95;64;64;100
95;64;68;80
84;88;86;94
103;79;56;64
84;87;48;64
84;94;95;92
86;100;100;110
111;95;64;80
92;105;103;98
98;111;111;111
119;110;110;102
96;80;68;72
64;72;84;80
80;88;95;103
107;111;111;104
100;111;111;96
80;88;111;111
95;111;110;96
78;107;80;74
68;68;76;84
107;95;64;64
80;109;95;91
95;95;95;79
68;68;80;98
110;111;93;64
72;72;68;80
92;94;103;111
111;64;76;88
90;95;111;111
111;64;72;72
72;68;76;82
84;95;95;95
109;103;95;79
64;64;68;76
80;110;67;64
106;60;64;72
80;72;92;95
95;79;79;77
56;76;111;63
64;72;84;84
90;82;82;84
95;67;52;48
64;68;87;95
87;54;54;48
84;92;88;84
94;95;95;88
88;95;103;111
111;64;80;88
111;75;64;64
84;79;52;64
92;103;95;95
95;79;72;96
111;111;111;95
72;64;84;94
111;71;64;80
106;111;111;106
92;76;64;64
76;68;56;48
76;76;84;95
95;56;64;76
95;95;95;87
79;64;68;88
95;103;91;64
80;107;92;92
110;94;68;64
64;64;64;95
103;79;66;64
60;64;82;95
95;93;79;66
64;72;80;84
95;103;98;88
80;84;92;84
90;76;64;56
48;48;68;72
74;64;56;40
40;40;48;56
64;76;79;76
74;91;95;95
95;95;101;103
110;64;64;80
108;95;64;72
110;77;66;64
64;72;76;68
72;84;84;80
92;95;94;88
84;84;80;94
95;88;76;72
80;95;95;95
68;56;50;64
84;95;95;68
56;48;68;80
95;79;63;48
64;94;95;87
95;111;103;84
76;72;64;64
64;68;72;82
82;94;72;64
72;95;94;88
95;103;95;79
64;72;90;103
111;111;108;108
111;111;92;80
76;88;111;95
64;64;64;72
76;72;76;72
95;44;64;78
95;95;92;86
95;79;64;76
84;103;95;100
88;111;103;111
111;96;84;72
84;102;110;110
88;68;68;79
79;64;64;76
80;76;76;88
95;95;79;52
72;102;95;111
109;111;95;95
95;84;64;72
108;68;76;96
111;71;64;80
111;64;64;72
88;95;72;64
64;64;64;48
56;64;68;95
95;79;63;48
64;94;95;95
95;95;79;77
64;72;80;88
111;52;64;84
95;95;95;80
76;88;95;103
84;68;72;80
95;87;95;100
76;64;68;76
88;95;87;87
103;90;80;76
84;102;95;95
64;64;64;80
111;77;64;72
72;76;80;68
86;46;52;68
78;86;95;95
72;56;67;95
84;68;48;52
76;63;40;64
72;64;48;40
56;87;63;40
48;76;76;84
82;95;95;86
64;52;54;54
44;48;64;78
78;64;48;56
87;47;48;56
68;68;86;91
95;78;48;64
95;79;63;48
72;63;44;64
90;79;44;64
92;40;64;64
78;84;68;48
56;64;64;64
82;79;36;64
87;44;48;68
82;91;94;90
88;95;95;101
84;76;68;68
68;84;80;72
64;48;48;68
91;63;54;50
44;64;78;92
91;60;48;48
76;95;71;52
52;56;48;64
95;61;40;48
64;64;72;68
64;52;64;87
79;36;64;84
95;75;71;59
48;48;72;95
71;40;76;95
44;72;95;71
48;52;64;76
84;95;95;92
82;103;95;95
76;68;64;72
95;79;58;66
54;60;87;95
84;64;52;48
64;64;64;68
64;76;78;86
95;95;79;60
52;72;86;95
88;95;87;68
64;68;80;88
95;71;52;68
84;95;92;72
64;62;94;82
68;64;64;76
72;68;64;68
64;68;79;91
87;79;95;95
103;100;80;72
88;95;68;56
64;80;86;78
72;64;64;64
76;86;80;68
95;40;68;90
76;64;64;68
68;91;95;48
64;76;84;88
72;84;95;90
82;78;86;86
92;92;80;72
84;95;71;52
64;88;95;95
103;95;95;79
64;64;64;71
67;56;64;76
92;95;95;95
95;66;64;64
84;103;103;72
64;64;72;95
103;78;64;80
111;95;94;76
64;64;62;66
79;52;72;82
86;95;95;95
103;92;80;72
76;88;94;94
103;103;100;106
88;88;72;64
80;103;95;66
64;66;70;56
64;80;86;88
92;95;58;52
80;95;71;48
80;95;79;75
56;76;107;87
75;64;64;76
103;52;64;68
95;71;48;64
82;95;60;48
80;63;64;80
84;82;84;84
78;68;72;82
72;80;84;95
95;95;95;95
103;111;84;68
64;64;64;68
88;63;64;72
80;90;92;80
92;95;79;48
68;95;95;52
64;78;78;64
68;94;95;95
103;103;95;95
64;64;64;64
80;95;95;92
72;64;64;76
94;95;71;48
68;90;86;76
82;82;68;52
48;64;94;79
71;48;52;68
78;79;63;71
70;63;52;52
72;95;95;95
79;56;68;80
95;79;52;84
95;95;84;64
64;92;95;95
111;111;87;74
64;64;80;92
84;84;86;103
102;95;75;64
64;88;100;111
78;79;85;103
111;111;96;80
68;95;103;96
90;108;111;79
64;88;94;111
70;72;96;106
110;95;64;64
76;84;103;111
87;91;78;79
74;64;88;111
76;87;95;111
88;92;111;111
111;64;84;111
111;76;64;68
80;111;70;64
76;100;111;111
111;110;108;111
119;119;100;96
106;111;111;95
82;76;106;119
95;76;72;92
111;106;92;84
96;87;64;72
98;111;95;68
68;111;111;66
72;88;95;90
100;103;79;64
72;72;84;111
95;107;92;76
68;76;84;90
95;95;54;72
80;87;48;64
102;79;75;60
64;72;76;82
76;72;64;64
76;87;95;95
95;64;52;56
64;64;72;72
84;79;87;88
86;88;95;95
90;95;66;56
68;88;111;95
56;68;88;95
92;68;52;48
64;95;63;54
64;84;95;95
56;71;91;95
107;111;78;64
80;111;95;64
72;108;111;111
103;95;64;72
92;111;111;95
72;72;77;70
64;72;94;111
64;64;64;56
64;107;103;107
103;110;102;106
102;107;88;80
80;95;64;72
96;103;84;72
76;95;56;64
80;95;62;52
68;95;95;71
56;64;80;95
88;103;95;95
95;95;71;64
72;88;107;102
94;92;72;72
68;92;103;95
79;95;95;79
68;79;71;56
80;102;111;111
111;95;66;68
96;111;79;72
88;111;76;64
64;72;76;84
103;95;103;92
106;79;64;80
98;95;64;64
68;72;68;72
92;95;63;56
80;95;95;101
72;64;64;88
88;92;72;68
68;76;95;79
48;64;64;68
84;95;92;80
76;80;90;95
71;75;79;62
56;64;72;86
76;95;44;68
95;54;48;64
80;95;95;79
71;52;48;64
103;79;52;64
76;95;87;68
64;80;95;95
88;68;64;64
88;63;48;64
68;76;72;72
76;90;82;72
64;64;48;40
48;79;91;79
75;44;64;76
94;93;82;76
88;95;95;94
84;86;82;64
64;64;64;64
72;87;61;52
71;87;95;84
64;64;64;48
48;64;80;94
95;95;90;92
94;84;72;76
95;78;48;68
95;87;79;68
64;76;95;95
76;64;76;95
87;95;95;75
95;111;111;110
88;88;80;76
84;80;100;106
111;95;70;64
64;64;88;103
111;95;74;66
64;68;80;72
80;87;58;64
88;95;103;103
98;111;79;70
64;68;92;107
95;106;92;92
98;107;80;64
71;95;88;64
64;60;48;64
64;92;95;95
95;95;92;94
107;111;87;95
111;104;96;92
96;111;95;72
80;103;102;100
102;111;111;119
119;111;87;76
96;119;119;119
116;104;104;127
86;90;72;72
100;119;110;84
72;64;64;72
84;82;102;95
79;95;76;71
64;64;64;76
107;95;56;64
72;92;95;95
103;95;84;68
64;68;80;80
72;76;64;86
86;87;64;52
64;95;95;95
95;95;84;64
56;56;48;64
80;87;54;48
64;95;71;46
64;76;95;95
95;95;95;92
80;80;86;84
84;72;72;74
86;76;90;80
64;76;72;64
56;52;64;78
87;86;72;64
64;88;95;79
48;68;82;95
63;48;68;94
95;78;64;50
48;48;52;64
76;95;63;40
72;95;56;48
72;95;52;48
64;94;95;63
64;95;48;76
94;95;95;95
95;96;68;64
80;111;95;79
64;64;72;80
80;76;88;88
86;88;76;64
64;72;72;68
68;79;87;95
95;95;95;95
95;111;103;104
111;118;108;96
92;119;95;103
111;111;103;111
111;80;80;96
106;123;127;127
127;119;91;95
88;80;76;84
104;119;111;95
68;80;96;111
119;103;72;68
80;92;94;88
88;80;76;94
103;111;111;111
111;111;84;103
84;90;100;72
103;88;68;93
111;106;100;108
111;111;119;123
119;123;127;127
111;127;127;127
119;92;88;104
112;119;78;88
108;119;111;111
111;127;111;80
88;116;119;91
76;72;84;100
100;92;84;88
100;111;111;111
78;64;80;88
111;103;64;64
80;108;103;111
104;88;80;80
80;92;86;94
106;111;107;98
80;80;88;94
111;95;111;111
111;104;88;80
84;111;111;111
98;100;84;76
80;111;79;64
72;106;95;64
76;111;103;109
96;88;84;96
111;110;111;111
119;95;95;72
88;119;95;68
72;80;88;88
109;96;90;102
111;111;111;100
104;92;72;64
84;88;88;88
72;95;107;87
79;64;64;80
95;77;52;64
94;95;84;72
56;48;58;79
95;88;68;56
66;87;86;72
76;103;79;48
68;95;79;56
64;64;72;86
78;64;64;64
72;84;95;79
77;95;95;84
80;95;64;56
64;95;87;78
64;95;78;64
95;88;68;64
56;68;72;76
95;95;95;95
95;101;80;84
103;111;79;64
80;94;84;76
76;94;92;88
82;103;103;87
64;80;94;88
92;88;68;72
92;92;76;68
64;48;48;64
95;95;95;95
95;94;95;111
111;102;96;96
96;111;95;95
78;68;64;66
64;72;84;100
103;84;64;79
75;75;64;64
92;95;71;56
64;76;84;78
80;92;94;95
107;60;64;84
103;100;95;88
84;92;84;84
72;86;88;76
78;95;94;102
95;82;64;70
69;64;60;58
52;72;95;79
79;48;72;90
95;95;84;84
80;103;95;94
92;84;88;88
72;72;76;68
76;95;95;87
48;78;95;95
87;95;111;98
72;68;72;92
95;95;111;95
93;87;79;79
79;75;64;80
96;108;111;95
79;72;64;72
103;111;79;64
102;110;111;111
107;95;95;95
76;72;88;111
111;111;119;110
96;111;119;126
123;108;88;84
96;96;88;84
106;95;64;72
92;111;103;111
111;111;119;111
72;96;111;119
119;110;88;80
72;100;111;111
111;96;72;68
84;111;111;95
94;95;111;108
80;72;68;80
92;76;64;56
48;64;90;95
95;95;95;111
111;111;106;96
88;88;92;92
96;82;68;64
90;91;56;64
68;95;95;71
56;64;74;94
95;103;100;80
80;111;111;110
119;111;115;108
118;119;100;84
84;104;111;111
110;92;76;76
88;109;111;106
88;72;72;84
103;110;110;102
84;80;72;88
98;80;64;72
76;90;80;72
72;78;84;86
80;76;52;79
95;71;52;72
94;95;82;88
95;95;72;64
72;102;95;111
87;64;72;84
103;95;87;79
64;64;72;76
103;95;79;75
64;64;72;78
80;95;95;76
72;103;79;79
95;88;64;95
95;95;68;64
72;111;67;64
72;92;95;103
103;111;111;111
111;111;111;104
108;111;100;88
80;106;111;111
108;84;80;80
96;96;80;72
80;107;103;111
111;103;88;88
96;109;111;103
95;87;68;84
96;108;106;104
88;100;111;95
66;64;72;76
100;95;102;111
87;66;64;68
92;95;87;95
79;64;64;64
84;111;95;103
111;79;64;68
92;96;106;106
98;88;68;64
72;111;70;64
72;100;95;92
90;76;76;76
64;48;64;82
95;95;92;84
72;76;92;95
52;64;103;79
48;68;94;92
84;72;72;78
94;95;95;95
107;92;64;64
88;95;65;56
64;84;95;87
95;95;95;87
87;95;95;95
74;68;80;80
96;100;100;88
64;64;64;72
95;86;76;64
64;80;95;95
95;80;64;52
64;88;76;64
64;95;79;56
48;64;80;84
90;88;95;95
88;80;80;80
92;80;88;95
95;95;76;64
64;86;90;84
84;84;72;64
64;94;95;103
95;91;76;64
68;111;71;64
88;98;94;88
80;76;64;64
68;84;76;76
95;95;95;95
80;68;72;76
92;84;64;52
64;90;95;95
79;52;68;72
68;72;64;64
72;86;95;95
90;72;64;64
95;72;64;72
95;79;79;79
63;52;48;72
88;95;86;84
95;95;79;52
64;84;95;103
109;88;84;76
64;72;82;95
95;79;71;68
64;107;87;68
64;72;90;103
79;70;64;52
64;84;95;95
107;52;72;88
111;95;80;72
80;76;72;76
72;64;64;68
64;64;64;66
79;64;68;78
82;64;44;40
36;52;79;79
87;78;74;72
76;72;64;68
68;91;95;95
95;95;84;68
64;52;52;64
84;95;95;95
103;92;68;64
68;72;82;90
72;64;72;76
82;95;79;44
76;95;95;91
95;103;88;76
80;100;94;90
110;94;80;80
84;80;72;64
64;64;72;94
79;71;75;95
103;72;64;60
71;64;48;64
80;84;84;84
68;64;48;44
56;95;71;55
40;68;76;84
95;72;56;56
64;84;93;95
79;75;71;52
64;80;84;95
95;74;64;52
48;44;64;84
95;84;64;48
48;40;64;82
95;84;76;66
64;64;64;64
86;87;95;79
52;52;64;64
76;72;68;64
64;72;79;76
86;72;78;95
95;95;86;64
64;95;76;64
95;68;79;80
64;52;48;48
68;87;72;64
64;76;91;93
76;64;64;72
80;72;84;90
86;90;78;72
68;86;95;86
64;64;64;48
64;64;72;72
87;86;87;78
72;84;95;59
48;64;80;95
95;95;107;95
64;72;84;76
76;88;95;94
84;92;103;95
95;111;100;84
88;111;106;108
106;84;72;68
92;111;95;95
79;64;64;76
94;103;95;91
111;88;72;95
87;95;84;87
96;68;74;87
79;95;111;111
96;96;102;92
84;102;111;111
110;80;68;64
64;88;103;100
102;80;84;111
111;111;111;111
111;111;119;100
80;80;92;111
111;92;84;88
96;110;103;100
104;88;72;64
64;64;68;72
76;68;64;64
68;76;74;72
68;74;95;94
78;76;64;52
64;76;64;52
64;87;63;59
44;64;90;90
80;78;76;90
90;64;64;72
68;95;79;48
84;95;52;48
72;95;79;58
48;76;76;68
64;56;64;68
86;72;48;40
40;52;52;56
87;87;93;90
76;72;72;84
92;90;92;80
64;64;72;86
94;72;48;44
64;95;87;79
56;64;74;90
95;95;95;95
111;94;106;111
95;66;80;88
80;72;92;107
95;109;92;80
92;103;111;111
98;84;76;84
106;103;103;92
92;98;84;68
64;100;95;64
68;92;102;103
103;72;64;52
72;84;94;95
107;103;100;98
92;100;95;75
64;80;88;107
103;110;92;72
72;90;106;111
95;76;64;64
80;80;84;90
95;90;84;92
103;72;64;67
95;68;60;48
64;86;95;55
64;72;64;64
72;64;64;90
95;79;95;95
100;111;109;108
111;111;79;64
80;88;110;111
102;72;64;72
88;88;103;102
84;72;64;72
95;95;84;72
84;82;84;76
80;84;88;95
95;78;64;52
82;64;48;44
64;95;91;76
76;64;48;48
64;87;62;44
72;78;87;93
76;48;44;44
40;79;95;63
40;56;68;87
92;72;48;48
40;48;64;74
95;91;80;78
76;68;52;40
64;64;56;48
48;64;78;74
87;87;91;78
64;72;87;87
86;64;64;68
92;91;80;68
64;84;78;76
68;82;68;64
64;48;48;64
76;87;87;95
94;76;68;64
92;71;48;52
80;78;68;64
56;44;40;36
48;70;87;63
54;40;64;87
87;91;76;64
64;68;72;76
76;52;50;55
47;40;52;52
48;56;68;78
64;40;56;74
87;79;87;78
76;80;82;86
95;95;94;103
103;100;90;110
111;94;80;84
92;94;103;106
111;111;111;110
108;110;100;92
96;92;96;92
84;76;64;56
56;68;95;95
95;95;76;68
64;64;52;64
82;84;84;86
88;64;52;79
95;80;72;64
52;52;64;64
82;95;95;79
48;94;95;87
71;64;64;80
95;88;102;95
102;107;103;103
110;96;84;80
76;72;64;64
72;68;88;95
84;76;72;64
52;64;72;72
64;72;79;79
78;64;84;95
63;48;48;68
95;58;48;48
72;72;64;76
78;74;66;48
56;76;91;91
92;68;48;44
64;87;79;61
48;64;91;95
95;71;48;48
64;72;94;95
95;94;80;92
111;79;74;56
80;95;56;68
94;80;64;72
88;80;82;80
72;52;48;63
63;91;76;64
94;95;95;103
95;95;95;95
95;79;64;64
72;80;88;90
100;88;72;64
72;95;95;95
95;79;79;77
95;111;96;80
88;88;109;103
88;72;68;80
95;103;95;71
64;64;72;64
64;68;84;95
84;64;52;44
68;72;68;72
72;76;78;86
94;89;76;68
72;87;44;64
95;91;59;48
64;95;95;103
95;64;64;72
84;64;48;64
95;95;95;95
95;107;84;72
72;80;84;94
95;84;72;82
102;95;95;92
94;92;84;95
111;95;95;103
111;108;96;72
80;88;111;111
95;64;68;84
100;96;98;92
84;88;84;88
92;72;64;64
72;80;88;78
76;64;64;68
72;72;72;78
90;80;64;48
40;46;79;64
48;56;78;87
63;40;44;64
87;76;64;64
91;95;79;62
48;80;95;94
86;64;64;64
76;64;48;48
72;87;79;95
95;95;84;88
88;80;80;74
68;64;64;72
80;68;64;78
94;92;86;80
72;64;52;52
64;64;64;86
95;87;68;64
64;64;56;56
72;71;46;44
40;52;64;76
84;87;79;64
48;48;68;68
87;87;91;95
95;103;103;95
80;84;80;80
98;95;87;95
95;111;111;96
72;70;64;68
103;111;95;103
79;66;72;80
76;64;52;64
68;64;92;95
95;95;94;80
92;95;94;84
76;64;64;72
95;95;90;72
64;64;80;95
87;48;64;76
90;80;82;95
95;103;95;95
95;111;111;111
111;90;72;96
111;119;111;111
95;80;96;110
119;111;79;72
88;100;111;91
72;111;111;111
119;119;127;119
111;95;91;76
96;108;127;103
72;96;119;119
119;116;96;80
84;119;87;64
84;92;102;108
110;111;119;119
111;103;72;88
123;111;111;111
95;72;80;76
96;111;68;72
104;111;111;70
76;80;80;80
103;111;100;84
84;88;72;72
102;107;95;64
64;72;72;72
80;64;64;68
72;64;52;72
90;91;82;72
64;64;68;64
78;95;95;87
79;75;56;52
64;64;64;72
95;57;48;80
95;64;82;95
79;54;64;88
94;94;90;76
76;80;68;64
48;64;84;87
95;90;84;92
88;68;52;52
52;44;64;72
95;75;79;95
95;56;64;68
80;64;52;64
78;95;95;68
56;58;60;55
44;64;92;95
95;87;103;103
72;64;80;95
95;76;64;54
62;48;64;76
86;90;84;76
76;84;95;59
48;64;64;52
48;44;40;56
64;52;48;40
44;56;78;79
46;48;72;79
63;44;48;56
95;52;48;64
74;72;68;64
76;82;68;48
64;93;79;54
64;72;64;66
84;80;64;48
56;52;64;90
95;95;84;72
72;64;72;84
76;72;76;95
94;84;95;102
95;94;94;84
80;72;72;103
79;56;72;84
103;95;87;64
72;106;110;111
111;64;96;108
111;118;119;95
72;80;96;119
123;127;118;112
112;100;88;96
104;125;91;79
64;96;111;79
64;88;80;80
80;72;64;64
68;95;95;95
95;95;76;72
68;92;95;95
107;100;90;80
72;64;64;80
80;68;68;72
72;84;86;76
88;95;95;95
79;64;76;88
94;95;102;90
88;111;95;79
78;68;68;84
110;71;64;80
94;100;94;94
92;92;92;95
88;64;52;52
48;64;87;93
95;95;88;76
64;64;88;95
95;61;48;56
64;94;95;95
79;64;82;95
95;79;87;95
94;72;64;80
92;78;64;64
78;82;87;84
80;68;48;48
66;76;78;64
56;44;52;64
87;55;63;79
80;64;48;64
76;68;48;40
40;64;72;70
64;52;48;48
56;64;79;63
40;40;52;56
72;87;87;68
64;64;64;64
64;64;64;64
94;95;103;108
96;88;80;80
96;98;110;121
127;126;134;124
112;112;128;128
104;96;104;104
128;120;128;124
130;127;120;128
108;96;96;112
128;134;127;111
94;104;128;104
88;96;112;143
127;111;111;111
115;98;108;132
140;111;80;96
116;112;108;104
104;114;127;116
96;96;104;104
112;127;127;112
96;96;100;116
124;134;127;127
128;104;96;96
103;88;100;112
143;132;108;96
104;112;120;120
112;104;104;112
128;116;116;112
108;104;96;96
116;112;104;104
108;116;122;112
120;140;127;111
96;108;128;127
127;104;142;127
96;112;128;120
120;135;120;104
96;88;88;100
132;119;127;132
104;88;96;96
130;143;127;108
96;104;106;100
128;128;128;122
126;112;96;88
96;96;96;112
124;126;108;96
96;96;104;114
122;127;127;111
88;108;135;127
127;127;127;127
126;127;127;127
120;110;96;96
111;123;103;79
68;100;111;111
95;74;68;68
92;88;84;80
80;90;111;111
119;108;108;100
100;88;76;76
95;111;94;76
104;127;127;127
124;124;124;124
120;116;130;112
104;96;96;96
104;88;80;72
88;104;96;96
114;119;111;111
84;108;126;135
127;100;88;96
112;100;96;104
132;103;76;84
100;114;127;127
107;108;143;119
96;128;128;135
127;88;104;112
118;143;109;88
112;124;120;112
108;112;135;127
135;111;76;72
80;92;108;111
82;72;72;96
111;111;87;68
108;111;76;72
100;111;95;95
79;68;64;52
64;76;86;93
91;95;95;87
95;78;56;48
64;64;64;56
64;64;72;72
86;92;68;64
64;84;88;80
88;94;84;72
68;68;84;94
95;103;88;84
76;88;111;111
87;76;104;119
127;95;80;96
120;127;123;120
104;116;127;103
88;88;88;88
84;124;127;127
92;96;104;104
120;127;109;98
96;96;104;120
135;127;127;109
104;108;128;128
142;141;127;114
104;100;116;143
111;96;112;132
122;127;120;120
128;127;111;95
80;100;119;126
127;127;126;120
104;92;119;126
104;100;114;108
127;95;76;72
84;72;72;76
80;95;95;95
94;64;52;79
79;63;71;59
40;64;91;95
95;48;64;64
86;95;103;111
111;111;111;119
110;116;116;120
110;118;127;127
127;127;122;104
96;104;120;127
111;84;96;104
104;116;124;112
96;104;114;108
104;120;127;126
108;100;100;112
135;87;80;96
108;127;111;100
90;92;100;98
96;132;135;127
111;95;88;96
128;122;140;134
132;127;143;143
130;108;96;96
128;103;88;104
116;124;128;124
127;143;139;127
127;118;96;96
112;124;108;96
88;104;127;111
80;96;100;96
96;84;76;68
76;74;72;80
91;78;64;64
64;76;79;79
63;32;40;52
56;44;52;52
62;71;48;40
52;75;72;70
72;89;93;95
71;64;64;52
64;82;84;88
95;95;66;64
72;90;100;107
92;72;68;72
92;95;79;64
88;111;79;64
88;111;95;95
76;76;76;80
84;96;116;127
127;94;84;112
127;130;108;112
127;82;96;112
116;114;100;96
108;108;128;143
143;132;100;100
128;128;126;127
143;120;116;120
134;135;118;104
100;116;127;143
143;72;96;125
95;76;80;88
127;72;96;92
80;72;80;96
111;87;79;64
92;79;52;48
64;64;79;63
32;48;70;63
38;20;48;63
39;24;16;16
24;44;46;40
40;48;50;32
40;48;48;76
63;32;56;76
79;71;79;95
95;95;95;72
64;64;64;76
107;79;52;68
90;95;79;78
79;64;64;80
102;95;87;79
76;72;106;119
127;76;88;106
127;119;111;110
88;96;116;120
124;132;127;135
127;111;88;100
128;127;127;143
151;143;143;127
127;104;136;142
128;108;100;100
128;139;111;84
80;80;100;104
108;127;104;96
96;96;96;123
127;127;116;104
104;104;96;96
119;127;127;127
118;127;95;111
103;103;95;64
72;68;64;64
76;79;59;47
32;32;54;52
52;40;32;44
54;47;31;16
64;55;32;40
64;78;87;79
95;63;48;64
95;56;48;64
68;84;84;86
88;95;95;84
64;56;52;64
95;61;64;88
103;77;64;74
71;64;64;88
111;111;111;95
86;80;96;104
116;127;127;119
88;104;112;122
128;110;108;108
104;108;108;104
108;143;143;119
104;128;128;132
116;116;116;130
143;111;96;92
104;136;127;127
141;131;112;104
100;110;123;124
127;78;80;104
127;95;111;103
80;84;108;127
111;76;88;111
95;79;64;48
68;93;79;79
64;40;40;36
40;52;63;46
24;16;16;24
52;63;47;18
24;32;58;79
63;36;44;68
87;46;42;40
52;87;87;54
48;48;72;95
60;44;52;64
76;79;48;64
95;95;87;64
102;56;76;94
94;103;107;74
72;80;88;102
119;91;76;72
96;125;127;116
96;96;127;126
108;96;96;104
108;104;104;104
128;103;88;100
128;140;143;127
127;143;143;143
116;112;128;139
127;127;120;116
128;108;96;100
127;127;127;123
103;96;124;124
127;119;88;96
112;100;80;72
84;88;100;111
95;75;77;95
82;84;80;76
64;48;40;52
62;63;63;47
16;40;54;52
63;10;32;60
63;20;46;79
79;47;48;72
91;71;77;95
95;95;95;111
111;111;111;96
84;84;98;106
111;119;119;111
122;111;119;111
88;80;88;108
126;103;86;76
100;127;127;127
100;96;111;127
120;104;130;127
90;80;96;104
114;127;95;96
128;127;111;103
88;96;120;142
143;127;100;112
144;151;143;132
142;111;111;98
100;108;134;127
127;142;143;127
127;119;103;88
112;127;127;112
96;96;104;100
96;100;88;80
76;80;88;111
95;79;87;95
95;95;103;110
95;71;64;80
95;63;63;59
40;44;52;68
70;77;79;79
63;36;40;70
91;95;95;103
103;106;88;80
88;94;88;80
94;107;100;96
88;80;98;111
111;64;80;108
119;111;119;123
116;118;110;100
108;127;111;82
96;112;122;127
127;103;88;96
116;127;111;88
96;118;116;116
104;104;108;108
108;100;108;124
127;127;92;96
128;143;111;96
128;128;116;128
143;127;127;120
96;104;102;96
128;127;88;96
116;127;96;96
116;114;127;111
84;84;100;108
104;104;111;127
76;84;106;116
104;96;96;96
84;92;95;95
95;50;64;95
95;36;64;83
79;63;47;32
52;71;71;72
79;63;32;48
74;38;48;68
95;63;56;48
64;84;78;64
72;93;95;95
100;111;79;64
88;111;111;111
110;116;119;116
112;122;118;110
104;104;110;104
108;108;119;127
127;119;127;139
130;122;116;104
104;118;124;127
127;127;135;135
127;111;119;92
96;116;143;127
127;143;143;128
108;116;116;128
116;136;127;119
106;104;112;128
130;127;95;84
100;96;112;118
104;88;88;96
92;88;88;96
110;87;72;80
88;104;111;108
111;118;108;96
92;111;95;107
106;111;111;111
92;84;88;95
103;63;55;40
76;79;36;36
48;79;63;40
64;74;78;80
86;61;44;52
84;78;76;95
94;95;95;103
111;111;88;76
80;72;64;64
102;111;78;64
88;103;64;72
92;111;111;111
111;119;91;72
100;119;127;119
88;82;76;96
124;127;103;92
88;120;119;86
80;96;96;100
124;78;80;88
96;102;100;110
108;122;119;96
80;76;72;76
92;95;64;76
88;80;68;76
88;95;79;70
64;64;64;84
95;56;64;86
95;95;95;95
56;64;64;80
80;82;82;94
95;79;79;79
77;48;48;44
76;61;40;56
76;79;47;40
64;79;47;40
74;87;87;63
40;64;76;94
95;95;107;95
111;95;87;87
68;80;111;111
111;111;111;79
72;88;100;98
100;111;64;100
111;111;111;111
104;110;106;106
108;102;88;84
80;84;68;64
92;95;71;64
92;95;64;68
80;94;90;80
80;94;100;103
100;98;80;68
72;111;111;111
85;68;88;100
104;111;94;72
106;126;111;95
72;72;84;92
104;111;111;111
96;88;84;92
109;111;111;87
93;95;111;95
72;80;100;111
111;119;111;87
68;96;111;111
75;66;64;64
72;88;95;95
95;103;101;108
111;70;64;80
92;111;95;79
64;90;100;94
88;103;107;100
102;111;79;91
64;84;111;111
111;107;111;111
72;68;80;96
111;95;68;64
80;90;102;100
108;95;86;64
96;111;68;72
110;111;64;64
88;95;91;87
95;95;103;87
72;76;64;72
92;106;88;72
76;103;95;95
95;109;84;76
79;109;84;68
64;64;72;88
111;79;64;64
76;111;95;71
64;64;72;80
103;95;107;109
111;95;74;64
88;95;70;66
64;64;56;60
52;64;72;92
95;87;67;52
52;48;52;48
64;79;55;36
52;72;79;72
78;84;87;95
95;95;95;95
79;71;64;56
72;88;84;72
64;64;76;95
92;80;76;86
95;95;79;71
64;64;64;84
95;95;95;95
84;64;64;72
92;95;103;103
103;84;80;84
103;111;111;95
103;95;70;80
104;95;71;70
68;64;80;103
111;79;64;88
103;64;64;76
94;102;80;64
68;95;100;90
106;95;75;71
64;80;104;110
79;64;64;64
64;76;95;95
103;87;71;64
64;68;76;80
94;95;103;95
111;79;64;64
80;88;103;103
100;102;102;111
111;96;80;64
64;64;64;68
82;95;95;95
95;95;111;119
95;91;87;76
72;88;96;88
72;76;88;92
80;76;95;103
95;103;106;96
100;106;111;111
87;111;88;72
64;64;64;72
80;79;48;52
64;68;64;64
68;79;55;40
64;79;82;64
64;64;64;78
76;86;80;64
48;44;68;95
62;48;64;78
94;79;44;64
64;78;94;95
88;94;95;95
98;92;80;68
72;95;103;95
77;64;76;103
103;95;64;72
94;111;111;108
111;111;119;119
119;125;118;110
100;100;108;116
116;96;76;64
96;111;95;87
91;66;68;68
72;94;95;95
79;87;107;111
111;104;88;80
80;88;110;103
79;95;87;93
86;78;79;64
80;95;64;72
84;84;68;64
72;95;95;79
54;64;64;94
95;87;103;100
84;72;64;64
80;79;48;64
88;84;72;64
56;72;91;87
71;75;87;95
72;76;88;94
88;72;76;76
64;56;48;64
72;95;95;95
76;64;72;95
95;48;52;64
80;86;84;84
80;72;64;72
64;64;64;84
91;84;76;72
86;95;52;48
80;95;95;95
102;88;72;64
64;74;84;92
95;95;87;65
64;76;95;103
91;87;95;110
92;96;96;100
108;95;95;78
64;80;88;103
111;95;64;64
72;111;111;111
111;111;103;79
72;111;111;68
72;119;87;95
79;103;110;84
72;80;80;80
100;103;103;88
96;95;64;64
72;80;80;86
95;95;95;103
90;96;98;102
102;111;111;111
111;104;76;64
72;96;103;110
111;111;95;72
80;95;68;64
88;92;76;80
94;94;111;95
95;95;110;100
80;76;72;64
86;103;103;111
111;111;111;108
110;119;127;127
127;127;127;100
84;95;86;68
96;87;64;92
106;111;111;95
64;84;84;96
98;111;111;111
111;119;118;100
96;96;92;111
119;111;103;111
119;127;127;103
96;120;127;127
111;88;96;108
126;108;96;96
110;119;127;95
72;100;119;119
119;122;119;104
104;127;95;80
76;88;110;111
95;103;118;116
118;127;127;118
127;127;126;108
96;80;92;100
127;119;119;100
80;72;80;107
111;103;79;64
80;102;111;111
95;72;72;88
108;111;111;111
119;102;108;123
95;72;96;100
96;108;111;95
72;68;64;64
68;84;84;72
64;64;84;95
95;94;80;76
76;86;94;92
90;95;100;107
111;103;108;80
68;64;64;64
64;80;95;103
90;84;76;80
88;95;76;80
84;95;95;95
88;84;72;72
84;82;84;72
64;64;56;64
72;86;86;86
68;68;76;95
95;95;95;95
95;68;87;92
80;92;90;100
95;64;64;72
80;95;90;90
84;92;88;103
111;95;109;100
92;88;68;64
64;95;103;102
94;110;111;111
111;111;111;118
118;110;92;76
68;64;64;64
72;72;64;64
64;84;95;44
64;95;95;95
102;103;94;84
80;94;106;111
111;88;76;72
80;100;98;92
76;95;107;95
95;108;110;110
110;111;102;110
111;111;123;127
111;127;127;111
99;80;84;100
112;106;104;98
104;106;96;88
84;84;92;94
110;68;64;88
95;86;86;76
72;84;95;95
95;88;64;78
95;84;64;75
70;87;95;103
111;111;119;95
68;80;102;111
64;64;80;100
110;111;95;95
95;79;74;74
68;64;88;102
106;106;102;80
64;72;80;76
72;95;95;95
95;110;94;72
64;68;94;95
56;68;90;95
103;95;103;95
87;93;110;104
108;111;111;119
110;96;88;84
88;92;88;80
84;111;95;87
68;64;76;68
64;94;95;75
48;64;82;95
71;56;64;72
94;95;95;95
111;109;111;95
95;64;64;76
100;110;111;111
102;96;104;111
72;72;108;111
111;95;87;79
76;64;80;111
72;64;96;80
92;111;95;95
95;111;95;95
91;95;111;119
122;127;126;120
108;116;108;96
96;108;100;80
72;80;76;72
92;103;107;107
111;111;88;72
84;103;111;111
111;92;72;64
72;87;107;109
110;88;80;80
84;72;64;56
72;95;88;90
72;68;64;48
52;44;40;44
48;56;56;78
79;63;44;36
48;68;83;82
95;95;95;95
95;79;64;76
102;92;84;80
86;95;95;60
80;103;103;88
92;106;107;111
111;111;95;68
80;96;94;92
111;110;111;111
111;111;119;119
79;76;72;80
111;95;70;64
80;106;111;111
96;102;88;80
88;94;95;110
111;79;79;87
64;64;80;106
111;111;96;88
84;111;79;64
64;72;88;103
95;75;64;64
64;72;72;95
95;95;87;64
64;84;86;80
76;86;88;92
103;110;111;111
108;84;80;88
111;95;103;95
64;119;111;95
68;84;88;80
111;111;106;92
88;98;102;104
84;92;88;76
76;80;72;80
95;95;95;103
88;84;76;72
94;95;92;88
95;102;92;80
64;68;76;78
84;82;64;64
76;84;76;68
64;82;84;94
79;79;79;60
64;64;64;64
88;95;56;48
64;72;78;76
76;92;76;76
95;95;80;74
76;88;95;87
71;64;84;95
103;90;94;103
90;88;84;72
64;84;95;71
48;64;64;86
95;72;52;48
68;95;79;44
72;79;63;44
64;95;95;95
102;84;72;68
76;90;95;95
95;95;79;76
64;72;103;103
111;84;64;60
64;64;68;68
76;84;95;95
94;103;95;91
66;64;76;72
72;78;76;86
95;95;90;86
82;92;92;68
56;48;44;56
64;86;79;54
64;95;95;63
48;52;48;64
76;84;95;95
71;48;48;64
90;92;95;95
84;76;80;88
95;79;56;52
72;80;80;80
74;64;64;80
84;68;64;64
72;91;79;71
44;64;90;95
79;87;95;88
88;103;95;95
93;72;64;64
100;103;95;95
95;111;110;88
88;102;111;111
119;119;123;127
126;118;116;108
100;108;127;111
80;76;80;104
119;110;96;72
68;68;72;88
110;103;103;92
88;80;72;88
88;64;64;68
94;79;79;63
64;111;79;70
64;64;76;86
84;95;95;111
111;111;111;108
111;88;72;80
96;111;95;72
64;88;102;95
79;68;66;64
111;111;95;103
95;111;119;118
104;108;108;100
100;118;119;127
127;127;127;135
122;110;100;96
122;124;127;127
127;127;111;94
96;143;111;80
96;126;127;111
111;127;122;104
104;96;100;124
127;126;124;127
119;92;96;124
135;104;88;80
88;108;116;118
119;104;96;88
84;104;111;87
68;80;102;107
72;64;90;111
91;64;68;92
100;110;108;108
92;80;96;111
104;100;111;111
86;72;84;88
76;80;72;76
92;103;87;68
52;64;72;95
79;75;79;79
77;69;52;64
80;94;102;95
95;95;94;111
95;66;64;80
111;87;64;64
68;84;95;75
78;95;86;64
72;102;103;111
111;102;80;64
64;84;102;111
102;72;68;95
98;76;72;72
90;102;88;80
76;72;64;80
95;52;64;76
94;95;95;95
95;88;64;64
64;111;87;75
64;72;88;103
111;102;84;72
88;110;111;111
111;106;76;87
111;119;119;118
124;114;123;114
96;96;106;104
104;96;96;80
96;111;119;119
95;95;95;72
80;96;119;111
68;88;111;111
64;80;92;96
88;72;64;76
90;95;95;103
107;80;76;95
90;76;72;76
95;80;92;103
95;95;102;92
84;80;76;68
76;86;95;95
66;68;88;95
56;76;92;86
76;76;90;103
100;108;111;95
74;88;96;111
111;95;103;111
104;80;72;96
108;88;68;68
72;88;103;95
95;95;95;71
72;92;100;110
111;111;119;108
88;84;80;84
111;87;64;80
111;92;72;68
80;88;68;64
72;92;95;95
79;78;67;52
72;84;95;103
100;98;92;72
76;76;72;76
80;102;95;95
103;84;64;77
52;64;84;95
95;95;87;79
73;70;58;64
80;76;88;95
95;79;95;109
104;80;64;64
64;64;68;90
95;68;52;48
48;74;86;76
64;66;64;64
72;95;63;44
48;88;95;95
84;76;102;79
52;84;90;100
103;108;105;84
72;84;95;88
76;68;95;103
95;87;64;100
111;111;111;111
95;72;96;116
119;124;108;116
124;96;80;88
108;119;119;110
108;104;104;100
96;108;119;119
119;111;95;80
100;124;127;126
127;135;127;111
127;120;112;108
104;104;112;116
120;100;100;118
124;100;96;112
124;127;127;127
135;112;100;96
96;104;118;127
95;104;124;127
126;135;126;120
122;108;88;80
80;80;96;108
114;104;100;88
80;80;88;100
108;88;88;88
84;92;98;104
98;88;104;111
87;72;80;80
88;88;110;110
104;84;80;96
118;119;127;127
102;80;100;116
120;100;88;96
104;127;111;80
96;127;103;94
95;88;96;126
127;130;106;96
122;127;127;139
127;127;135;127
103;84;100;135
127;80;96;104
124;127;135;127
104;96;108;127
127;118;96;96
112;112;104;104
120;127;109;88
104;140;143;127
116;104;104;122
124;104;96;110
122;126;120;128
127;127;112;116
124;134;108;88
80;108;127;127
127;108;96;96
96;120;127;92
96;143;119;84
96;120;127;119
103;102;96;112
142;127;98;96
143;84;96;108
120;104;88;84
84;96;108;127
119;111;127;142
132;135;127;127
130;122;122;114
112;112;112;108
116;104;112;128
127;127;135;127
135;126;112;104
104;120;116;116
116;108;104;108
112;134;127;127
106;96;112;136
135;122;126;128
112;116;126;130
127;127;134;127
127;130;104;96
112;128;127;127
135;127;100;119
128;96;123;128
96;88;104;130
122;112;96;108
112;120;120;116
128;104;88;80
104;118;120;114
128;127;107;88
120;127;111;96
112;116;140;127
94;96;135;127
119;103;88;108
128;118;120;120
108;104;134;127
80;122;127;110
88;116;143;127
102;96;112;128
124;112;122;135
124;132;116;100
100;127;131;127
127;111;127;127
143;143;135;108
100;100;104;120
127;119;108;96
128;120;116;130
108;100;96;96
126;120;112;108
112;116;128;127
143;127;132;104
84;96;96;124
127;98;96;104
134;124;96;92
84;108;122;130
128;111;80;96
127;135;126;112
116;132;135;108
96;104;96;88
104;127;135;126
127;128;126;133
127;95;84;96
108;127;135;127
127;104;96;96
104;108;108;135
127;95;88;112
143;127;127;128
104;108;135;127
127;84;88;96
112;116;116;130
126;100;88;80
108;139;103;80
96;116;124;116
112;143;135;127
124;130;135;127
127;127;140;112
96;88;108;143
127;135;108;96
92;88;96;116
132;127;138;127
111;88;104;135
127;103;96;112
132;124;116;104
96;128;127;127
127;111;96;128
143;102;88;112
120;120;112;108
140;127;103;96
112;116;128;116
132;127;109;96
100;128;143;111
94;96;112;132
130;112;104;100
139;86;88;108
127;119;88;104
128;139;127;127
111;96;112;143
94;88;88;104
126;128;108;96
96;88;84;84
96;104;108;127
111;88;96;116
127;102;90;96
143;103;80;104
127;134;127;127
127;120;116;128
139;127;112;104
108;112;116;104
96;96;120;132
135;103;80;88
116;104;104;108
116;127;96;96
143;143;127;127
127;119;96;112
116;100;96;96
108;116;138;127
98;96;104;112
112;138;127;127
96;104;116;132
135;127;95;84
112;104;96;96
124;101;96;120
128;104;88;86
80;106;143;95
96;104;122;122
128;127;95;96
112;116;116;128
130;127;127;134
127;84;104;135
127;119;127;141
112;96;103;100
96;96;112;128
126;112;100;100
100;124;124;104
128;127;127;119
103;100;128;127
127;112;92;118
111;110;116;108
110;122;110;108
122;102;119;102
108;116;104;110
111;110;104;108
111;106;104;106
106;98;100;104
98;104;109;96
82;111;108;96
96;80;76;96
110;87;68;64
80;64;64;56
52;72;90;95
95;56;64;84
102;95;95;71
64;98;111;95
64;64;88;98
94;80;64;79
95;95;95;95
111;64;80;96
111;68;80;96
111;79;68;64
76;95;52;72
94;88;68;64
72;80;95;95
94;82;64;52
54;40;64;78
90;84;84;95
95;79;52;64
72;68;68;64
64;74;78;72
76;56;56;72
86;79;79;79
48;86;95;79
54;64;94;79
48;84;103;95
87;64;64;76
111;52;80;102
103;80;72;103
107;109;106;111
110;111;111;95
80;92;111;119
119;95;72;88
100;92;90;88
103;92;76;64
84;72;64;64
68;93;95;95
64;68;95;103
92;98;98;86
84;72;76;82
82;76;76;80
80;74;76;86
90;95;95;95
80;64;64;52
64;84;95;95
66;52;72;86
76;68;56;48
40;40;48;64
68;64;52;44
64;79;79;87
95;59;54;63
79;95;95;87
64;76;92;95
107;103;95;111
92;80;68;80
111;95;102;88
76;64;76;107
71;80;111;95
66;68;64;68
84;95;95;103
84;68;79;95
95;95;111;111
108;111;108;100
88;72;64;72
88;72;52;64
88;95;95;95
100;92;82;76
94;100;102;111
111;90;92;108
95;64;84;103
109;111;94;74
64;88;110;111
111;111;111;111
111;127;119;112
104;88;96;117
111;103;72;100
119;95;72;64
80;80;72;72
64;64;68;95
86;72;64;52
48;56;76;78
64;44;40;52
79;79;79;79
87;78;64;64
72;87;89;92
94;80;68;68
95;58;44;48
78;87;87;95
88;84;72;72
84;95;95;95
95;48;80;95
95;65;52;52
80;90;88;64
72;76;78;86
95;61;48;56
68;64;72;91
95;95;95;95
95;95;91;111
88;72;72;72
84;76;84;80
64;64;64;64
91;79;46;48
72;84;86;95
63;64;68;64
72;90;88;80
76;56;64;90
84;88;88;95
95;95;95;95
80;82;88;94
111;87;71;95
95;111;95;87
68;88;111;111
103;95;68;72
92;92;80;76
88;109;95;95
87;64;72;80
84;111;95;66
72;76;82;92
76;68;76;80
92;95;95;79
52;64;64;84
95;61;64;103
95;64;64;80
107;79;52;64
72;107;95;91
64;72;94;111
95;103;104;84
80;76;72;72
72;76;76;76
95;95;79;56
64;88;95;88
88;80;72;64
80;94;86;76
86;94;88;92
92;103;103;102
94;94;92;102
111;95;76;87
64;84;111;95
79;84;78;91
87;64;80;80
100;111;110;88
76;64;64;52
76;95;95;95
88;64;56;52
64;92;95;86
95;95;88;76
64;64;64;72
95;44;72;90
95;79;48;80
95;48;64;84
95;63;48;52
76;82;82;80
80;86;86;80
95;48;64;95
95;56;48;64
88;80;64;64
76;78;72;72
78;86;82;72
64;64;56;48
72;72;68;66
78;95;95;95
95;103;94;72
68;76;76;84
95;79;71;79
95;111;98;88
100;94;84;76
76;72;68;84
95;63;48;64
94;95;67;66
71;48;64;64
86;79;48;64
88;95;70;48
68;72;76;86
92;95;95;88
100;107;103;94
80;64;64;75
79;87;95;108
102;104;111;96
92;100;84;80
76;80;95;100
103;111;110;84
64;64;64;68
76;82;95;95
95;67;52;64
72;82;95;88
72;56;58;62
63;63;58;48
80;95;75;52
64;72;86;94
95;95;95;76
64;64;68;92
95;48;64;64
64;64;82;90
95;63;63;79
79;95;80;64
64;64;64;84
95;62;48;64
84;95;95;71
75;95;95;72
64;52;56;64
86;95;95;86
72;56;62;95
94;90;88;84
76;64;76;86
86;76;68;64
64;44;48;48
68;91;95;94
72;60;90;64
48;48;68;86
94;84;76;80
76;64;64;72
95;79;63;56
48;72;91;92
95;87;71;64
52;68;92;95
103;95;102;84
88;95;103;102
100;94;88;80
72;64;64;88
95;87;95;103
103;88;72;72
76;68;72;92
94;95;79;56
80;86;84;80
68;64;68;86
95;48;64;64
64;56;64;64
68;64;52;56
68;70;70;64
76;86;95;79
44;64;52;40
52;48;64;87
79;40;48;68
87;91;82;76
94;63;44;64
76;95;87;69
48;64;80;90
95;95;79;64
96;95;103;84
80;80;72;82
103;95;66;64
56;68;80;76
76;86;95;95
95;95;103;110
111;111;111;87
72;80;119;111
119;123;114;96
84;68;80;104
111;111;110;96
88;84;76;76
88;84;84;80
76;90;103;95
103;98;68;64
64;64;72;80
94;90;80;72
72;56;48;64
76;86;76;76
90;79;71;79
79;79;95;103
111;103;100;72
95;98;76;80
111;64;84;98
103;102;84;76
88;111;91;95
95;64;64;76
88;80;64;72
80;95;95;95
111;95;95;95
111;111;108;104
127;72;88;100
111;103;95;95
83;68;92;111
95;72;80;108
111;70;68;76
80;88;76;80
84;95;95;84
84;76;76;92
103;48;64;72
88;94;74;64
48;48;64;64
64;64;68;86
87;87;79;71
52;64;72;84
92;84;84;72
72;74;72;76
90;95;95;82
64;64;64;64
76;79;62;59
68;56;50;44
64;64;74;91
90;95;79;62
52;64;64;72
76;72;76;78
84;88;82;72
78;82;88;95
95;63;52;48
64;72;64;72
90;79;63;62
48;48;64;78
86;95;93;64
48;52;64;78
95;71;52;48
64;72;82;90
86;92;78;68
64;68;92;95
95;63;48;64
95;58;71;79
95;95;103;95
84;98;102;111
111;68;64;64
64;64;64;78
100;95;95;86
72;64;52;68
95;48;48;48
64;64;72;91
95;95;95;95
95;95;102;111
111;64;72;100
95;68;64;76
92;111;95;87
64;64;80;107
95;72;111;95
64;64;76;76
88;95;95;95
64;70;95;94
96;103;100;88
88;107;111;111
79;64;64;96
103;95;64;64
80;95;95;103
95;64;68;80
103;71;56;64
94;87;60;64
80;103;95;95
95;79;79;70
64;64;76;88
94;100;107;103
100;102;92;88
92;106;111;111
111;104;96;88
92;106;106;111
95;64;80;96
110;96;76;64
64;72;103;87
71;79;101;80
72;72;64;64
64;64;95;87
75;48;64;76
94;95;95;95
109;95;93;79
95;111;100;106
117;111;94;78
80;88;92;84
88;98;98;98
80;64;72;76
92;103;95;95
64;72;88;94
103;71;64;72
72;80;86;88
103;58;48;72
84;76;64;64
72;95;87;87
95;95;79;87
79;79;64;84
88;103;111;87
64;64;92;107
103;111;108;111
111;79;72;64
64;96;111;111
111;79;64;80
88;111;95;87
64;72;76;90
95;80;64;52
52;52;52;48
72;95;95;95
95;103;107;95
111;111;111;110
111;95;64;96
119;64;88;111
111;119;119;123
124;111;80;72
88;88;102;100
111;111;111;95
92;111;126;100
88;80;88;100
119;87;68;64
84;96;111;109
92;80;68;68
80;95;87;95
111;111;111;106
104;106;104;111
111;68;72;96
100;107;111;111
111;68;76;100
102;111;111;111
119;119;100;80
72;80;96;104
111;76;64;76
96;111;88;64
64;64;64;72
100;87;56;64
95;48;64;88
95;84;80;84
95;95;95;80
76;82;76;76
82;95;95;92
92;94;76;64
64;64;64;72
95;95;94;102
107;109;100;84
64;64;64;52
68;72;72;76
92;95;95;66
56;52;64;80
92;90;76;72
80;72;52;71
95;94;88;95
95;64;88;95
103;95;95;95
95;95;103;85
68;80;111;111
111;79;64;88
111;95;64;72
92;79;64;64
64;84;92;95
95;64;72;72
72;74;90;86
76;84;64;64
68;76;90;95
77;79;87;94
91;111;111;111
104;108;100;96
100;111;111;100
84;68;79;95
103;111;96;80
88;111;103;95
74;70;64;64
88;107;95;95
111;111;102;92
88;84;72;76
88;95;103;111
95;64;64;68
72;103;95;67
72;107;95;95
111;111;111;111
84;72;84;84
96;111;103;111
108;96;88;111
118;111;108;98
108;111;108;102
108;119;111;94
86;84;72;72
70;64;72;80
94;103;95;95
68;64;64;76
103;79;66;64
90;95;100;92
76;64;48;64
94;95;95;103
95;79;95;78
64;84;103;95
75;68;64;94
111;64;64;72
84;95;64;52
68;74;88;95
88;94;94;86
92;95;71;52
68;76;72;72
92;95;95;95
72;64;72;94
95;95;103;95
95;102;80;72
64;64;64;66
56;52;64;80
95;95;95;80
64;64;72;84
84;82;84;86
76;72;68;68
72;91;79;71
48;48;48;40
64;95;79;55
48;48;40;40
40;40;48;76
95;47;40;56
64;78;79;87
95;95;88;76
68;72;68;64
78;63;48;40
64;79;90;95
63;71;79;95
95;95;76;72
80;103;95;87
72;64;68;92
111;64;64;64
80;84;95;95
68;52;64;76
95;79;79;87
93;95;95;79
64;76;106;111
111;103;111;96
84;88;80;82
100;95;71;64
80;103;107;106
111;111;111;111
119;107;78;72
72;72;90;111
111;104;80;72
80;94;80;68
64;68;80;78
76;86;90;86
95;94;84;72
92;79;48;64
90;95;95;95
110;107;88;72
72;94;109;107
92;88;72;84
95;95;68;64
64;64;72;86
92;92;103;95
107;95;78;66
64;76;80;86
84;95;92;80
80;94;103;102
106;103;111;111
111;111;111;119
118;127;111;80
100;110;104;102
104;111;119;123
127;119;100;100
110;107;72;88
100;111;111;110
123;111;111;84
84;111;68;80
100;95;70;64
80;98;109;102
96;111;110;106
100;96;108;111
106;127;87;72
123;95;91;95
74;74;68;64
64;72;88;80
92;103;95;64
64;80;102;95
87;102;72;73
95;103;88;80
72;84;103;103
102;88;80;88
109;64;64;80
94;95;92;103
106;111;107;111
111;104;80;72
92;103;78;64
84;106;109;107
100;102;102;104
100;104;111;103
95;95;95;87
72;68;84;84
88;111;87;95
87;79;68;80
100;95;64;68
84;92;107;87
64;64;76;102
103;79;64;84
111;111;100;76
68;68;76;80
100;95;52;64
111;48;64;72
64;64;72;72
64;78;84;86
93;87;60;48
56;76;95;71
48;52;44;48
80;76;68;64
56;68;95;79
40;64;80;95
77;87;95;99
92;82;82;84
72;80;76;78
80;74;68;64
86;63;52;40
64;64;64;91
79;87;79;75
52;68;78;80
80;95;95;95
103;100;76;64
64;64;52;64
76;92;90;86
92;95;95;103
100;72;95;72
95;68;95;100
88;80;76;94
107;103;96;76
64;68;84;84
76;90;90;76
72;90;80;64
52;64;88;95
79;52;48;64
72;84;86;82
95;71;48;48
64;95;95;95
94;88;64;52
52;64;64;68
90;86;72;64
76;87;63;48
64;80;86;95
95;95;95;93
94;71;64;72
84;95;95;78
68;102;78;88
78;72;92;68
88;64;79;92
64;93;64;90
68;76;79;70
82;66;78;64
95;95;76;64
60;71;52;48
68;95;95;48
72;79;48;52
64;80;88;90
86;90;92;95
52;68;95;103
111;56;80;111
111;79;70;79
70;79;64;72
102;87;68;64
80;111;71;64
80;100;102;94
88;88;92;100
80;76;76;92
95;103;95;107
98;80;88;111
87;64;80;107
108;102;98;104
111;95;95;87
93;111;119;100
100;111;126;127
95;72;80;96
98;95;68;64
96;111;95;68
102;87;64;64
76;88;103;94
94;111;111;111
111;98;72;64
68;111;111;111
111;111;104;96
96;87;64;76
88;111;95;95
95;111;96;80
68;64;64;64
80;103;95;95
79;64;80;103
95;56;64;76
88;95;64;52
80;95;95;95
79;64;64;76
95;95;87;79
95;109;102;80
72;72;64;68
103;56;64;88
95;95;95;95
110;102;76;64
80;111;95;64
72;88;80;92
107;95;95;64
80;110;95;95
103;111;111;111
104;96;80;72
96;64;64;88
111;111;111;111
102;106;104;88
80;96;103;104
108;111;106;84
80;72;84;110
95;109;110;111
111;111;83;90
111;127;119;100
84;96;123;119
108;96;72;64
68;84;94;108
111;111;87;64
80;92;110;111
111;111;92;72
72;84;80;76
80;103;110;107
100;92;80;84
98;87;64;79
103;84;72;103
94;100;92;76
80;92;107;95
80;88;103;111
95;64;72;88
96;109;111;111
104;80;72;68
72;107;95;107
100;96;94;100
111;68;72;102
95;79;68;64
84;111;111;111
102;102;84;72
84;94;100;92
94;92;102;103
110;111;111;111
96;80;64;64
76;110;95;79
64;64;72;76
80;80;80;80
82;95;95;95
94;92;80;76
88;92;86;68
52;48;48;72
95;95;95;95
70;79;95;79
64;72;92;107
87;103;111;111
111;100;84;72
64;64;68;84
111;107;106;102
106;102;92;96
102;88;96;111
111;111;111;119
119;108;96;96
96;111;87;68
72;72;64;72
84;95;95;95
111;111;79;72
110;87;64;96
111;95;79;66
64;90;111;111
111;111;103;111
68;84;96;92
84;111;111;103
68;64;80;98
111;96;72;72
80;95;56;64
84;103;95;102
102;111;111;108
98;104;111;111
111;118;111;78
72;84;96;96
92;88;92;103
111;64;72;103
95;77;64;72
84;107;103;104
111;111;102;88
76;72;68;76
88;103;95;78
64;102;111;111
106;111;111;103
95;72;68;84
104;111;95;72
72;102;111;95
72;111;111;72
80;108;104;104
119;119;118;111
116;110;110;127
95;95;95;72
96;104;104;102
96;108;123;111
111;98;80;111
108;80;79;78
64;80;98;92
90;110;108;111
108;111;108;102
100;104;104;108
119;111;111;119
104;108;104;96
84;84;90;100
110;111;95;95
111;104;88;100
111;111;85;80
119;111;95;68
80;116;119;119
127;126;125;120
112;127;127;111
80;112;116;104
88;110;111;111
108;100;100;111
111;119;123;111
76;88;104;117
100;96;80;64
88;111;111;111
79;111;88;95
84;107;88;90
109;80;76;84
96;72;72;88
98;111;111;108
119;95;68;68
72;104;111;95
72;80;100;111
95;111;88;88
90;98;104;111
66;72;96;100
80;94;84;80
92;92;94;95
88;100;111;95
87;111;111;111
96;106;119;95
72;72;64;96
111;111;92;88
106;79;72;109
111;64;72;92
102;96;80;64
72;103;95;95
95;94;68;64
76;76;88;107
58;64;72;84
95;95;88;76
68;95;95;75
52;64;76;95
95;103;100;100
84;84;72;72
72;103;48;64
82;76;72;80
76;95;94;92
92;103;103;95
79;109;84;68
68;76;80;94
90;107;95;109
102;95;64;64
80;111;79;64
84;111;111;111
95;111;102;80
76;80;92;100
92;88;84;72
80;107;102;88
76;111;95;87
64;72;80;88
80;95;79;79
95;95;111;111
108;80;64;68
80;110;95;71
72;111;95;95
111;95;95;91
64;80;80;82
111;111;111;106
88;106;110;110
127;87;68;80
92;108;111;111
119;119;127;127
107;103;119;123
103;80;96;104
106;123;127;127
127;84;80;88
104;119;79;82
83;76;64;80
84;110;111;87
66;72;76;64
64;107;95;79
79;64;80;84
95;103;95;71
64;64;76;102
95;88;68;64
68;64;64;64
86;95;95;95
95;95;80;68
72;107;87;52
64;68;64;68
88;95;95;63
64;103;95;95
79;66;64;80
101;95;107;111
111;95;111;119
127;126;116;108
110;116;108;104
84;88;88;80
92;103;102;92
84;68;64;64
84;95;70;48
80;90;95;95
87;95;87;79
64;76;103;111
95;106;96;92
88;100;106;102
110;104;88;72
72;72;103;95
64;64;72;88
103;95;79;70
64;64;92;103
103;111;111;108
110;110;110;111
111;119;125;119
104;127;127;111
80;80;88;114
119;96;72;68
64;72;80;92
98;109;95;64
84;95;95;103
111;100;88;72
88;98;88;76
76;107;95;87
68;64;68;86
92;94;88;84
92;103;87;79
56;72;103;103
95;100;88;64
72;76;72;64
72;72;64;72
64;64;48;40
44;40;48;68
79;79;87;72
52;40;40;72
87;79;68;68
64;48;36;40
48;79;63;40
40;64;68;56
56;64;76;79
91;63;61;52
48;84;91;84
72;80;68;64
72;78;82;95
94;76;64;56
64;64;64;64
68;78;91;95
92;72;72;72
92;95;80;64
64;80;84;76
64;44;46;63
87;82;64;64
72;74;64;48
64;79;84;87
92;68;68;88
95;84;64;50
48;64;84;90
95;76;72;76
68;56;68;76
68;64;64;78
93;91;95;71
48;68;86;95
79;48;64;72
76;84;95;95
63;64;94;95
95;72;64;72
94;95;95;76
68;76;72;64
64;64;56;79
63;71;79;95
90;64;52;63
79;95;95;107
109;92;80;72
98;100;76;64
56;64;68;80
64;78;95;84
74;76;90;88
82;72;76;84
80;68;56;52
87;95;63;48
64;78;95;95
95;84;76;72
72;64;64;68
64;92;95;87
87;52;64;76
95;86;72;72
88;92;95;95
95;102;80;80
103;107;111;111
111;111;108;92
96;92;88;88
100;102;88;72
72;76;64;84
95;95;95;79
64;68;90;107
95;110;111;111
118;118;118;92
80;84;88;111
111;111;111;111
78;84;108;119
111;68;100;119
79;80;104;111
119;119;123;127
95;88;118;127
127;119;111;127
127;108;96;104
112;100;110;111
119;106;96;108
111;106;100;96
88;108;111;111
96;88;72;64
76;107;103;107
88;84;92;88
94;100;96;84
80;72;80;92
88;82;84;80
72;76;84;95
90;84;88;95
71;64;90;102
102;82;72;68
80;103;95;103
103;92;64;64
64;64;84;102
103;108;106;98
84;84;76;72
80;76;64;64
64;48;44;40
48;79;87;95
95;79;79;79
56;64;95;84
64;64;64;66
76;91;80;64
52;40;44;48
64;84;95;95
95;95;84;72
76;95;95;79
56;72;95;95
95;100;76;64
64;60;48;64
76;90;82;72
64;64;80;76
68;64;56;64
95;75;40;48
84;84;68;64
68;84;94;95
79;95;95;95
91;64;64;72
95;95;80;64
64;64;76;94
95;64;70;95
68;64;64;64
72;84;94;95
54;52;64;68
84;88;71;48
76;95;87;54
64;95;95;95
107;95;95;95
95;111;111;111
95;80;72;76
110;102;88;92
98;100;88;80
104;100;84;76
86;111;87;64
64;111;56;72
106;95;87;64
80;102;111;87
64;72;96;106
111;111;111;111
126;111;90;72
96;119;95;95
72;72;88;96
111;111;108;88
84;88;111;111
95;76;74;64
70;87;95;95
79;64;72;88
94;110;95;64
64;84;95;95
86;76;64;64
84;95;95;95
107;106;94;92
88;80;72;64
92;95;87;79
56;80;111;95
68;64;64;80
94;95;88;80
95;63;64;72
84;94;111;71
56;64;84;95
103;94;68;64
64;72;86;95
95;95;84;72
64;64;64;82
95;95;95;67
64;64;68;80
95;95;103;110
111;79;64;80
111;103;80;72
88;95;64;64
88;102;111;87
64;72;94;103
94;72;72;72
84;72;64;78
94;95;95;95
95;95;95;95
110;88;72;64
72;80;95;95
84;64;56;48
64;76;86;74
80;78;76;64
64;52;64;70
72;64;64;78
87;78;48;44
40;64;94;87
63;64;86;95
95;95;76;68
80;86;80;76
72;72;76;68
88;79;71;52
48;72;91;95
95;61;68;95
63;68;103;95
95;95;79;76
64;100;111;111
72;72;88;111
95;74;68;64
80;110;95;79
64;111;111;111
87;72;72;102
104;72;72;88
106;107;111;111
100;76;64;64
64;76;72;72
76;68;64;68
72;78;84;90
80;64;48;44
56;74;84;76
79;64;44;40
40;48;56;66
79;63;71;87
76;52;52;40
40;66;78;87
95;63;48;48
76;78;86;95
95;80;64;64
84;72;64;64
76;78;76;87
82;64;48;48
68;64;84;95
95;76;64;72
92;95;95;95
109;103;95;79
64;68;80;95
94;72;64;70
48;64;72;80
84;68;76;95
95;52;64;80
95;95;74;64
56;64;72;86
86;64;52;56
95;79;63;40
64;74;76;82
76;64;64;64
64;64;64;52
52;64;79;79
55;40;64;74
76;72;74;82
82;64;64;76
87;87;52;44
48;78;95;79
50;64;84;76
64;64;44;40
48;64;56;72
79;40;48;68
95;51;40;68
79;46;40;56
72;86;92;95
95;87;95;84
68;64;48;52
64;68;72;80
90;95;95;95
103;94;80;80
100;95;95;80
80;64;64;72
95;95;92;64
52;80;95;95
95;103;84;72
64;64;76;90
95;71;48;64
86;88;95;95
103;107;106;104
88;72;64;64
64;68;64;68
90;84;80;72
72;64;48;52
68;72;87;86
78;64;56;64
91;91;78;68
80;90;94;95
95;95;95;87
64;80;100;94
111;64;68;72
76;107;95;111
91;68;92;100
103;96;90;92
88;76;84;76
64;52;48;64
76;68;78;90
95;88;76;84
95;92;78;68
64;68;74;92
59;64;82;95
95;95;95;79
60;72;76;80
107;60;52;64
94;95;79;79
70;52;64;88
95;88;64;52
68;95;44;64
80;64;52;40
48;74;91;87
40;68;87;95
63;48;48;64
64;64;56;64
68;70;72;87
63;48;76;85
84;56;63;87
95;95;87;71
64;72;92;95
88;64;52;48
72;95;95;95
90;64;64;64
72;91;86;84
86;72;64;64
64;52;72;84
95;72;56;48
64;95;79;63
52;64;68;78
86;95;86;76
66;68;88;95
79;79;95;103
111;111;111;95
87;72;88;111
111;100;80;64
76;103;111;107
98;90;96;92
96;111;75;64
94;84;68;68
95;95;77;52
72;84;92;72
64;48;44;64
76;76;72;86
95;63;44;48
64;64;79;91
92;68;64;52
64;72;86;68
48;44;40;40
48;70;87;79
60;79;87;54
64;90;92;72
64;64;68;92
87;48;64;92
95;56;64;95
95;71;56;68
103;95;71;64
96;80;90;111
111;111;111;111
118;96;76;74
64;104;111;79
68;108;119;111
111;119;119;111
95;88;122;111
82;84;116;111
80;88;111;111
127;119;111;119
119;86;80;96
127;111;72;88
96;80;80;88
84;86;80;80
76;72;64;64
76;94;95;95
95;64;64;80
88;95;95;79
56;84;111;95
79;79;64;72
98;96;90;88
92;95;101;109
103;102;111;87
64;68;80;88
88;72;68;72
64;76;76;80
90;95;79;63
52;64;95;95
94;64;87;80
64;56;52;76
95;95;95;88
72;64;64;64
95;95;95;71
64;86;103;106
87;64;80;88
80;76;95;95
95;64;64;80
107;95;79;71
64;72;102;111
110;96;76;64
72;84;103;103
95;90;84;72
64;64;64;84
95;95;95;95
111;68;64;80
96;111;95;79
64;80;106;102
90;76;68;72
72;64;79;94
76;64;68;84
95;95;91;71
56;64;76;76
64;52;52;64
64;68;70;76
76;64;40;40
64;79;32;56
95;40;48;56
52;56;64;79
91;87;56;70
95;84;80;103
103;64;72;84
111;72;64;92
111;111;106;104
127;79;84;112
127;107;80;104
116;108;104;104
104;88;84;80
80;118;95;80
124;127;127;122
104;96;104;124
128;104;96;96
108;110;120;127
127;92;96;108
112;124;135;127
111;88;104;127
127;88;104;120
142;127;127;131
124;127;127;134
112;96;100;120
135;90;80;96
127;111;80;96
124;111;84;104
133;116;100;96
100;110;127;127
127;127;127;100
104;104;104;104
128;110;116;112
116;127;92;88
108;104;100;96
100;116;132;127
127;88;96;120
132;126;127;134
127;127;103;88
112;143;135;122
126;128;120;127
116;120;112;104
108;128;116;141
127;119;96;96
128;120;128;126
128;120;104;96
96;88;88;100
128;127;92;88
96;130;143;111
88;96;96;112
128;112;112;134
139;127;139;127
116;98;111;143
143;128;96;88
92;88;96;120
143;130;104;96
104;128;134;127
134;118;104;96
98;96;104;104
128;128;112;112
132;120;112;112
108;112;128;128
143;80;104;124
134;127;127;143
142;124;116;104
108;128;130;124
120;108;100;112
128;132;132;127
127;124;139;127
143;111;96;116
143;140;108;96
104;112;136;132
118;120;143;127
92;108;128;128
130;124;124;134
139;135;127;111
98;112;140;138
132;104;96;108
106;100;104;128
140;127;96;100
128;128;128;127
127;143;143;143
143;95;96;112
142;143;127;111
104;128;128;134
120;96;96;96
143;143;128;124
128;124;112;104
104;112;128;128
136;127;111;96
136;138;135;120
136;143;119;111
110;112;128;150
151;111;104;112
132;128;132;128
112;112;108;100
104;128;128;128
120;143;127;140
138;118;104;104
96;96;112;128
116;112;112;130
143;127;143;134
120;100;96;112
134;143;127;111
102;128;138;127
127;123;104;104
132;128;116;128
128;134;127;127
127;114;114;116
128;136;159;143
143;123;127;142
128;116;128;138
143;92;96;128
127;96;104;128
127;96;104;128
143;111;103;96
112;128;128;112
120;120;116;128
136;139;127;138
138;127;127;102
104;116;128;130
128;116;122;128
143;111;98;88
104;112;116;128
128;128;127;127
134;143;127;103
96;116;128;128
116;108;116;132
132;118;116;142
111;103;96;96
112;128;116;100
100;118;134;135
127;127;127;118
111;108;104;128
140;122;112;128
127;127;100;96
116;120;138;127
96;100;112;132
135;127;127;135
127;124;118;96
108;128;127;111
96;96;112;136
143;95;92;92
96;128;126;130
127;120;104;100
116;143;127;111
96;116;140;127
143;124;104;96
96;112;128;116
112;127;98;88
104;108;132;127
127;127;143;119
100;116;128;128
127;127;132;127
127;90;92;88
104;130;135;124
104;96;96;108
135;120;104;96
128;126;108;100
116;143;127;119
127;109;96;116
142;119;92;96
128;111;84;88
127;80;96;104
139;80;72;80
100;116;127;127
127;107;92;96
112;138;127;118
108;104;112;120
104;116;132;127
122;108;104;116
135;127;119;127
111;96;120;130
142;127;127;127
143;119;111;110
92;88;88;88
104;108;108;114
118;126;116;108
108;96;88;96
108;96;88;88
88;72;68;70
95;103;111;95
80;88;116;119
119;119;104;100
100;88;104;111
119;111;74;72
98;111;111;111
111;95;95;72
96;110;111;119
108;108;102;100
111;95;76;68
106;106;108;96
88;76;96;111
95;70;64;72
80;64;54;58
54;63;58;54
50;64;95;63
48;64;68;86
92;87;60;52
48;48;64;76
95;52;78;94
87;75;58;50
64;48;48;44
48;64;76;79
84;91;95;95
95;95;95;95
95;79;79;87
86;103;111;119
127;91;84;126
119;100;88;72
68;72;84;88
106;95;79;64
80;72;72;88
88;103;95;109
111;98;72;72
100;111;95;111
111;74;64;72
80;82;95;103
103;64;64;84
98;92;92;88
76;64;48;48
48;68;86;91
95;71;79;95
88;72;64;64
80;80;86;95
95;95;87;78
91;87;75;64
72;76;95;52
76;84;82;84
84;76;64;52
64;84;87;55
52;72;87;84
74;64;64;76
68;64;52;48
64;78;87;95
54;48;64;68
84;87;72;64
64;64;74;78
95;63;46;44
72;95;95;87
95;95;72;64
64;64;76;76
86;95;62;48
74;92;80;90
111;48;64;68
72;64;72;76
76;92;95;79
95;71;64;72
76;72;80;95
95;56;64;76
103;63;48;64
84;95;87;79
95;79;64;64
76;92;103;111
111;79;64;76
111;95;95;95
95;64;64;80
106;79;64;64
64;64;52;48
76;95;79;52
64;64;78;87
95;95;94;84
84;92;95;103
102;88;84;80
106;87;95;68
64;75;95;107
111;107;111;111
111;111;100;88
96;100;92;84
88;111;111;111
104;106;111;70
80;90;111;111
111;79;64;80
96;79;64;64
76;76;94;90
76;76;76;72
80;95;95;95
95;95;103;87
68;64;72;88
103;95;95;95
95;64;70;79
64;64;72;95
110;79;87;71
64;94;111;103
111;95;68;64
80;100;109;111
68;64;84;103
111;95;68;64
100;111;111;111
119;103;85;68
88;96;102;94
80;80;94;103
92;102;100;92
80;64;64;79
79;70;64;64
80;103;95;66
64;76;106;111
56;84;94;95
100;107;106;104
84;84;111;95
111;111;111;95
79;68;64;82
108;95;64;84
92;100;102;98
96;80;76;68
72;64;64;86
94;95;79;71
79;87;70;64
64;64;72;84
94;95;95;92
80;84;110;71
64;84;88;88
76;64;48;52
44;48;64;76
95;62;48;48
64;64;52;56
82;79;79;87
90;76;76;92
95;71;48;72
86;95;79;62
56;64;76;92
95;95;103;103
92;102;84;72
76;84;80;86
94;103;95;87
78;64;80;100
102;79;64;80
80;68;64;64
80;95;95;84
80;95;86;72
72;76;68;48
44;64;82;91
71;52;80;95
95;95;95;95
107;87;87;87
79;72;64;64
64;64;68;72
76;95;95;80
76;64;64;72
74;72;90;63
48;48;64;76
84;68;52;40
56;48;44;38
55;63;47;44
95;40;52;68
64;52;68;79
86;79;71;63
50;48;48;64
90;79;48;82
95;71;52;52
76;95;95;95
87;64;72;84
100;95;87;64
64;82;88;95
100;95;88;88
98;95;102;80
64;64;68;88
95;95;79;60
64;56;48;72
95;95;95;86
64;64;64;72
76;95;95;87
66;64;103;95
79;64;88;95
95;64;72;76
76;76;82;95
95;71;64;94
100;92;100;111
95;64;76;102
111;111;111;87
87;72;64;88
100;111;106;102
96;100;88;94
111;111;110;92
80;92;108;111
111;68;84;96
98;111;106;96
96;102;111;111
111;79;64;80
96;96;103;84
96;95;111;111
72;72;64;72
96;107;92;72
64;64;64;48
68;84;95;87
95;79;64;64
80;71;54;48
64;64;76;72
68;76;64;64
74;91;95;87
79;56;48;64
84;95;95;88
90;103;107;90
64;64;64;72
84;95;71;62
64;90;95;95
102;103;95;103
87;64;80;108
111;64;72;100
111;95;74;68
68;64;100;95
64;94;111;87
87;64;84;88
72;64;64;68
82;87;52;48
48;44;56;78
82;95;63;44
64;82;95;75
48;56;78;95
95;95;103;86
64;64;60;67
48;72;92;95
87;56;64;72
80;76;80;93
95;95;95;103
94;103;94;94
100;79;79;64
64;72;107;110
111;64;72;76
80;90;95;103
111;79;71;64
80;107;110;103
80;72;72;84
107;95;103;80
72;72;72;76
76;90;90;88
84;95;95;95
78;78;64;64
90;95;95;95
95;64;68;88
106;95;74;64
80;100;110;108
110;79;64;64
64;72;72;76
88;95;70;56
64;72;95;95
95;87;79;56
64;64;48;64
86;75;63;48
64;68;68;64
92;63;79;95
95;88;72;64
72;92;95;95
95;94;94;95
102;111;111;94
74;64;72;68
72;92;102;98
90;72;68;76
95;95;66;52
92;95;103;103
88;100;80;72
64;64;76;95
95;79;52;64
80;72;64;72
95;44;64;72
80;64;64;64
76;63;54;40
52;78;87;95
76;76;94;95
63;64;72;76
88;95;91;95
92;76;76;80
68;56;60;63
48;74;95;62
48;48;64;72
82;78;64;52
68;95;63;44
64;64;48;48
64;95;87;95
92;76;64;68
88;79;78;56
64;84;86;92
95;95;103;90
68;79;102;76
72;76;92;95
94;88;92;111
95;78;77;70
64;80;94;76
72;76;84;95
95;95;111;111
111;91;76;79
79;64;104;111
111;111;92;72
64;72;88;103
98;111;110;111
108;102;96;88
88;98;86;80
76;76;76;72
76;95;95;58
64;52;52;72
94;79;50;64
72;78;76;76
68;90;95;95
95;95;103;111
100;111;111;95
92;79;76;98
119;70;80;111
111;64;64;84
96;95;66;64
84;111;95;73
64;70;91;103
88;84;84;80
98;58;64;88
95;95;95;88
88;95;71;56
64;80;84;80
72;95;95;95
95;92;80;80
76;84;82;95
94;84;103;95
95;91;64;68
96;111;64;72
110;66;72;100
98;80;72;72
84;79;64;72
103;60;64;80
95;79;60;64
82;92;103;95
95;107;100;80
72;80;86;84
80;95;88;76
64;64;72;88
95;95;95;95
95;68;64;75
68;87;87;78
64;64;80;92
92;95;95;87
87;64;64;80
109;95;87;79
64;64;64;92
103;64;64;80
102;103;102;100
110;95;95;76
64;64;84;111
95;64;64;64
92;80;72;64
76;87;79;48
80;95;95;95
95;103;94;94
80;64;64;80
95;87;58;64
110;95;95;91
64;72;111;103
103;111;111;103
111;127;122;100
84;96;119;119
110;119;123;119
96;84;92;98
106;111;93;72
72;96;111;111
111;72;80;111
111;95;68;80
106;86;64;72
106;111;111;119
111;119;127;126
110;96;88;88
100;95;68;88
100;111;111;119
116;111;76;80
96;111;119;119
123;107;79;76
72;80;110;111
91;72;68;98
111;86;68;68
64;64;72;100
103;94;80;72
88;71;64;95
103;95;111;87
64;64;88;94
88;64;64;76
86;79;56;64
78;86;94;95
95;79;56;64
64;64;78;90
95;87;79;52
64;103;79;52
72;95;95;88
72;76;90;95
75;64;56;64
92;95;95;95
95;64;64;76
84;68;56;56
64;90;95;95
103;95;76;72
80;79;52;64
94;95;95;79
91;111;110;111
107;95;95;95
92;76;80;96
119;79;64;72
88;106;96;88
88;92;100;84
80;103;92;72
64;68;86;84
76;88;92;76
64;64;76;64
64;64;74;87
95;95;95;48
72;95;56;64
86;95;79;48
80;103;95;103
94;68;66;79
71;64;56;64
80;80;80;88
92;95;64;64
88;96;111;111
111;111;111;123
110;88;80;72
80;84;92;106
111;127;151;166
159;159;141;132
128;144;148;148
140;154;150;144
136;160;175;178
160;168;172;168
168;180;196;215
207;176;180;208
208;192;180;180
192;223;223;223
231;222;200;192
200;234;215;192
192;200;204;200
192;206;223;207
207;190;187;176
176;200;208;220
208;216;223;222
204;230;231;223
180;200;223;207
207;207;192;180
176;190;188;172
156;156;158;151
143;143;127;92
112;100;100;128
139;111;88;122
134;111;95;78
68;64;64;64
72;78;64;48
44;56;48;52
63;47;39;24
16;24;63;63
55;47;32;32
40;71;79;59
48;80;94;95
88;80;76;76
72;100;107;100
92;100;104;106
98;96;84;102
111;76;72;96
110;123;127;119
111;102;80;100
116;126;108;100
114;116;116;104
88;88;104;118
126;127;135;127
134;127;127;126
120;132;127;119
88;128;127;127
127;143;128;128
132;135;104;108
104;128;154;159
143;136;128;120
120;112;116;114
120;127;127;143
127;88;96;120
116;127;127;119
127;127;95;76
110;79;80;84
100;111;95;62
44;44;40;44
62;63;54;59
62;55;55;43
15;0;0;12
31;15;15;15
2;2;7;11
22;46;32;16
24;36;60;63
60;79;63;40
32;36;56;70
68;79;79;59
40;76;79;55
48;68;91;95
95;75;52;64
72;79;48;48
64;76;80;86
84;63;64;72
95;103;111;111
111;95;76;96
110;104;100;96
104;95;72;96
108;125;127;127
127;111;111;102
112;148;159;159
128;108;128;144
155;143;119;104
96;112;138;139
126;124;135;127
124;127;122;122
123;119;103;95
74;66;64;64
80;95;95;95
79;95;95;95
78;68;66;64
60;60;60;38
8;4;8;8
8;31;15;15
23;23;0;0
8;31;1;0
0;31;31;0
8;20;16;32
58;63;31;16
48;63;43;24
44;64;68;60
48;79;63;79
79;79;91;87
68;76;82;92
64;52;87;78
64;72;91;95
79;44;68;82
92;79;64;64
84;96;96;98
104;111;111;119
96;84;80;80
84;108;116;108
104;110;127;127
111;108;112;128
128;140;159;159
116;123;112;128
136;112;108;128
122;127;127;143
119;88;96;112
127;111;87;68
88;92;103;100
92;84;72;72
72;78;91;95
79;79;78;63
54;44;24;20
28;31;23;11
0;0;20;12
4;15;15;7
3;0;0;15
15;15;15;0
0;16;32;55
47;20;16;32
44;63;63;68
62;63;63;63
79;63;32;52
66;79;71;79
63;63;79;82
64;48;52;64
82;95;63;61
48;64;72;95
95;95;95;64
68;92;92;106
96;96;88;108
108;119;119;122
110;88;88;118
110;104;88;88
108;124;128;128
132;143;106;104
112;112;128;128
140;143;127;127
127;119;96;96
128;127;98;107
80;104;119;79
72;111;79;64
92;79;63;48
64;92;79;40
64;87;87;79
59;63;48;36
32;24;24;31
31;30;8;0
0;0;0;0
0;0;0;15
23;0;0;8
30;31;31;47
47;52;32;32
36;60;63;63
58;40;24;32
52;63;47;38
24;40;48;79
79;78;56;44
44;36;32;40
48;79;79;79
79;63;63;63
44;48;52;72
95;95;95;84
80;110;111;108
98;88;84;80
92;111;87;72
80;88;106;119
108;96;88;104
112;128;128;128
128;143;138;143
140;132;110;112
134;127;127;127
126;132;127;127
126;126;112;114
104;104;109;107
103;95;64;58
77;95;86;64
50;40;64;64
70;61;54;47
42;36;16;0
16;31;15;15
23;12;0;0
0;0;0;0
0;8;23;31
31;28;24;24
28;47;55;63
60;52;50;44
48;63;71;79
79;79;79;68
68;79;79;79
87;63;48;48
76;95;95;90
72;64;64;80
86;94;95;95
95;95;107;111
111;80;94;111
92;104;111;127
119;116;88;118
88;111;127;122
116;114;112;104
104;108;100;100
108;143;154;156
136;128;128;128
128;128;128;143
127;135;108;96
96;127;119;96
88;120;127;122
110;111;111;111
95;100;80;68
64;86;95;95
95;95;86;76
88;87;63;47
55;56;36;32
36;43;26;22
12;0;0;4
15;15;4;0
0;0;8;23
15;8;4;12
12;20;28;24
16;46;46;56
52;63;63;63
62;78;79;79
79;71;79;53
40;82;87;79
69;54;48;48
64;86;86;72
64;72;87;93
95;95;95;103
110;111;111;111
88;96;100;96
96;92;80;80
100;119;119;127
111;84;96;127
111;100;88;112
130;142;143;143
143;142;128;124
122;135;159;159
140;150;151;143
127;127;127;128
100;116;127;127
127;119;95;72
80;111;91;58
64;98;63;48
68;95;95;59
48;68;79;63
44;32;32;32
28;39;31;31
29;22;29;15
23;10;4;0
0;0;14;15
0;0;0;8
20;31;2;0
24;54;58;60
44;44;48;66
70;52;48;64
79;79;63;55
53;36;32;48
86;68;48;61
79;64;48;48
64;87;79;93
91;86;72;64
64;95;79;64
72;94;92;88
80;111;95;87
79;72;96;119
111;119;96;80
96;122;119;127
107;86;96;138
151;143;143;143
112;140;159;159
159;148;112;114
104;143;143;127
127;143;143;130
108;116;127;119
111;102;72;64
64;92;71;44
64;68;78;87
71;87;68;48
32;40;55;38
8;0;12;31
23;0;0;0
8;15;15;6
0;14;15;0
0;15;0;0
22;8;12;31
31;44;20;26
55;63;55;36
32;79;71;56
64;79;47;46
36;42;63;78
85;93;90;84
64;72;78;72
76;72;52;64
72;95;95;95
95;95;95;95
95;108;90;88
80;119;111;119
119;100;84;80
80;100;114;122
124;126;127;127
119;88;96;112
128;155;159;159
144;128;128;136
140;155;143;127
104;111;106;104
128;127;96;112
128;124;127;127
119;108;110;96
92;94;92;102
92;68;78;95
95;75;71;79
71;71;63;44
40;59;47;47
24;18;38;15
0;0;8;8
15;10;0;0
0;0;0;14
15;8;0;0
0;31;32;32
16;32;52;55
63;63;68;44
32;74;63;47
32;32;24;48
48;78;79;87
87;95;62;48
68;95;79;79
60;50;48;72
84;95;79;95
84;84;80;96
102;98;96;102
123;111;111;76
96;127;127;111
111;111;119;127
135;104;96;112
124;138;142;146
156;152;136;146
159;143;104;128
140;151;138;128
112;96;88;96
104;127;114;96
80;80;84;92
95;76;56;87
72;68;72;72
79;86;72;56
56;64;70;54
24;36;47;31
43;23;0;0
22;23;0;0
10;20;12;0
0;0;0;0
0;15;22;31
7;0;0;16
40;63;39;31
20;76;71;71
71;52;52;52
64;68;79;79
79;66;64;64
68;76;93;94
88;72;68;78
92;80;68;72
80;91;92;94
92;74;64;72
84;84;72;80
108;94;76;68
80;111;111;111
91;95;103;127
120;100;96;96
108;112;112;128
151;148;144;148
150;156;150;159
143;118;110;112
136;143;98;96
120;127;94;100
112;118;108;88
72;64;72;94
95;86;95;95
95;63;44;42
40;93;79;42
32;52;32;16
16;36;23;0
0;0;0;0
0;0;0;0
4;3;0;3
0;15;27;22
8;20;31;24
32;48;63;63
70;71;63;52
56;72;78;63
59;55;75;79
42;40;44;64
87;38;52;64
70;64;76;76
91;78;56;50
54;63;95;95
95;103;107;102
84;88;111;111
111;100;80;72
68;84;96;116
116;100;88;88
96;110;104;100
92;112;127;127
143;146;128;128
128;128;140;144
128;148;143;143
132;143;135;112
88;100;108;112
96;104;127;127
87;64;76;88
84;76;64;64
87;84;76;78
78;72;64;64
52;56;55;47
47;42;36;26
4;0;2;0
0;0;0;0
4;0;0;0
0;0;15;0
0;0;16;28
31;14;31;59
50;32;54;32
58;44;32;39
46;63;56;48
56;63;47;34
24;76;79;63
63;63;79;79
87;84;64;64
64;64;64;64
72;95;95;86
80;88;95;95
109;95;111;104
88;80;72;68
80;119;95;111
111;95;84;104
125;127;127;120
96;102;123;141
134;128;144;154
152;148;128;128
128;134;140;128
112;104;100;120
119;92;88;100
80;80;88;80
72;68;74;72
64;72;84;87
79;56;40;36
40;78;66;46
36;38;38;31
15;11;7;15
7;11;0;0
0;0;7;1
0;0;0;0
4;7;0;0
0;0;12;24
31;24;47;44
24;16;24;44
47;46;40;32
32;46;63;63
18;24;46;56
60;36;24;32
58;63;63;42
32;64;47;44
72;79;79;79
79;79;87;95
95;95;95;79
64;84;96;111
111;111;119;116
110;96;92;123
119;108;88;88
108;119;119;126
112;108;96;104
119;100;88;84
110;111;111;119
95;95;87;72
84;84;110;111
68;80;76;80
100;103;95;79
56;84;100;95
95;94;72;64
72;94;103;84
72;64;52;64
72;87;87;87
82;56;44;40
40;52;70;79
79;63;40;52
68;64;52;40
40;56;79;79
79;52;40;40
72;87;87;95
95;95;95;94
92;80;80;76
72;68;68;76
84;76;80;84
88;76;64;76
68;64;52;64
76;64;48;64
66;64;48;64
68;68;64;52
48;48;40;40
52;52;44;40
52;52;48;70
79;79;74;48
40;40;48;64
79;79;87;87
88;95;95;75
56;72;76;76
72;64;64;64
64;68;68;64
76;72;68;74
79;79;79;63
48;64;68;90
87;79;95;95
84;64;64;56
64;94;95;71
64;64;88;95
95;103;106;84
76;72;76;72
84;68;52;63
71;48;56;68
64;64;72;95
63;55;48;68
64;78;86;74
68;78;72;68
74;68;64;52
64;91;79;91
86;72;68;68
64;56;64;74
79;72;91;90
78;64;48;40
36;68;87;79
63;84;52;46
40;64;87;95
95;78;64;64
76;95;87;79
52;64;68;80
88;80;78;84
76;95;92;82
76;52;63;95
90;95;95;84
80;64;56;48
68;84;84;92
92;84;88;103
95;79;64;52
64;76;92;94
90;68;64;72
84;68;72;76
72;78;86;84
64;56;85;56
76;64;75;86
72;64;72;76
76;76;72;68
64;56;40;32
56;86;87;79
71;52;56;46
64;72;90;95
95;79;71;52
72;103;95;95
103;109;84;64
64;68;64;68
82;84;88;86
80;84;72;80
93;72;68;72
74;72;72;76
78;64;64;74
95;95;87;91
79;79;95;95
95;95;95;79
76;64;80;88
88;111;87;87
64;88;107;100
72;72;72;84
95;48;68;92
95;71;71;71
56;72;94;103
95;95;111;102
84;64;64;66
64;52;64;72
80;68;52;44
64;84;90;82
64;48;40;36
64;68;66;64
52;44;36;63
72;56;40;32
40;68;74;68
74;79;63;44
40;48;68;79
84;78;64;64
72;91;95;79
48;64;68;68
72;64;64;76
82;79;40;56
88;92;88;74
72;95;95;80
68;52;48;64
68;84;76;78
80;78;68;52
64;95;71;46
52;95;95;86
64;64;80;95
95;103;102;94
100;100;106;102
100;84;88;92
88;95;90;82
80;68;68;72
95;79;79;79
60;64;72;82
92;95;95;88
80;68;52;48
52;64;76;68
48;40;48;64
79;79;72;64
64;64;68;64
72;56;48;48
48;56;74;79
63;40;40;48
64;56;56;56
64;76;79;79
64;48;48;48
64;56;40;47
32;64;79;63
55;36;64;87
79;82;76;78
68;78;95;63
52;64;68;72
76;86;92;94
95;79;63;52
64;52;48;68
95;67;79;67
52;68;72;72
86;72;56;48
48;64;86;91
95;95;95;103
100;110;108;102
92;68;64;64
80;80;72;72
94;76;64;64
64;64;76;95
52;64;95;79
52;48;64;82
95;95;86;68
64;64;64;72
72;68;72;76
78;76;68;68
72;64;52;72
87;40;64;68
90;84;68;48
68;87;87;87
87;80;82;80
95;63;48;64
90;88;95;95
60;72;92;95
76;56;58;71
87;95;91;87
95;64;80;88
102;111;94;80
92;76;68;64
63;48;48;84
95;95;78;64
54;79;90;78
64;56;67;44
68;68;64;72
76;48;40;48
64;79;40;48
74;56;48;48
48;52;79;76
78;72;78;86
79;86;64;48
40;64;64;74
78;63;47;44
40;56;87;87
87;92;76;64
64;64;68;76
78;95;87;95
95;56;64;68
88;95;95;95
94;68;95;68
64;79;95;107
88;68;95;68
78;95;103;100
88;64;78;79
79;75;71;64
64;76;64;64
90;71;48;64
72;90;95;95
95;95;95;80
72;64;64;86
95;95;95;103
95;79;64;64
68;80;90;86
84;72;72;64
84;95;95;86
80;64;56;72
72;86;78;64
60;63;54;46
48;68;78;78
82;76;84;84
78;95;91;79
56;72;95;95
95;52;72;102
107;95;76;72
72;103;103;88
80;64;72;90
103;95;80;64
56;48;64;84
90;95;95;95
95;64;91;76
79;84;64;52
48;64;82;95
95;95;95;95
94;68;64;74
64;52;64;80
94;72;52;54
48;48;40;52
68;64;48;40
40;48;52;64
56;36;32;32
42;71;40;63
64;40;46;42
32;52;70;79
87;32;64;86
95;95;95;95
103;87;64;64
94;111;74;64
100;111;110;107
111;111;111;104
84;76;79;87
78;70;72;80
102;102;92;84
76;100;95;64
64;76;78;76
76;94;95;95
92;64;56;64
80;95;79;58
64;72;88;95
95;95;79;75
56;64;76;95
95;90;84;72
68;64;68;86
95;48;76;95
95;103;100;94
84;72;72;72
103;79;66;60
52;64;72;95
95;95;95;109
103;88;84;92
106;106;106;111
111;111;111;110
111;92;72;72
64;80;90;88
84;64;64;64
68;95;95;95
95;64;72;76
94;87;60;48
72;72;76;90
95;84;72;72
72;52;54;63
58;52;44;48
64;74;87;94
92;95;71;48
64;64;64;64
64;82;86;82
64;56;52;64
68;93;95;79
44;64;84;95
95;95;95;72
66;68;60;52
52;72;94;95
79;48;72;95
79;87;95;95
111;111;111;102
123;143;143;143
143;104;128;140
155;151;143;128
116;104;104;116
128;143;127;111
100;104;116;122
122;127;127;127
124;116;96;84
80;76;72;80
100;98;84;86
76;87;63;36
20;32;20;28
28;31;7;0
0;0;0;15
0;0;0;0
0;0;0;0
0;0;0;0
20;24;8;4
8;42;47;55
63;31;12;8
32;46;60;63
47;12;32;32
36;63;55;63
69;44;44;71
68;64;76;74
79;78;66;48
40;48;64;76
92;95;95;95
95;111;100;84
93;82;80;108
124;127;127;123
119;100;112;132
142;127;96;128
159;159;160;156
152;148;148;160
166;152;136;128
152;159;159;148
154;151;151;159
151;151;136;130
116;96;96;88
88;84;96;104
114;100;84;84
84;84;88;104
139;111;79;64
68;68;64;78
87;79;79;78
56;32;59;66
40;32;48;63
77;79;79;78
103;77;72;103
84;92;104;128
144;136;136;159
159;150;128;128
132;128;152;168
152;166;172;164
148;146;148;168
176;196;192;194
192;176;172;180
192;192;192;200
212;208;216;238
251;255;255;255
242;256;256;256
256;236;224;240
264;256;244;256
256;271;247;232
274;287;279;279
278;272;268;276
292;300;300;316
335;335;319;304
308;304;332;327
318;304;288;280
276;264;256;256
268;271;255;270
255;239;224;256
263;255;252;256
263;239;228;238
255;271;239;208
216;212;208;212
216;220;204;196
184;176;168;192
206;215;207;186
176;192;192;200
212;216;246;254
268;255;271;271
287;282;268;272
294;287;295;303
303;303;256;276
292;288;272;264
264;276;303;303
286;276;288;317
319;319;311;288
292;288;288;288
288;308;326;324
320;320;320;328
332;344;356;367
364;364;383;383
366;368;384;399
407;383;368;368
388;415;399;387
384;384;408;431
431;445;430;424
440;456;475;475
478;456;436;447
463;424;424;447
447;447;447;447
436;424;400;400
398;399;384;384
376;372;360;368
384;368;368;372
384;388;384;384
352;340;348;352
336;328;320;320
328;351;351;363
351;350;324;344
340;340;336;340
328;340;328;368
398;376;368;384
400;408;418;431
428;420;408;400
414;414;404;408
420;447;447;455
461;463;459;439
432;448;448;456
468;479;455;448
468;487;491;491
484;480;456;452
464;495;487;487
464;480;510;511
484;484;492;514
508;504;488;488
480;496;500;504
496;496;500;520
522;518;498;512
500;536;571;559
559;552;575;559
548;544;544;544
552;567;559;559
550;543;538;538
524;543;511;511
506;492;488;496
504;527;511;511
511;490;492;512
511;516;496;512
500;506;488;484
480;486;488;488
482;488;472;456
456;448;478;495
495;495;503;511
511;498;511;524
511;530;500;512
535;518;516;528
540;548;536;536
536;556;558;567
575;550;544;552
552;556;562;574
582;575;552;564
568;596;603;607
591;584;615;607
607;623;590;592
608;639;619;606
600;651;623;612
624;634;644;644
640;624;620;640
640;640;624;652
663;663;655;640
624;651;662;652
640;660;676;702
706;735;735;747
734;720;730;751
728;716;708;704
704;716;719;719
711;676;688;706
698;695;687;671
655;624;640;655
649;640;640;634
634;644;628;628
624;644;639;623
620;623;584;580
584;600;590;576
564;568;568;560
560;556;568;568
556;556;564;560
582;576;596;623
623;623;612;640
644;652;654;658
671;650;640;648
660;679;668;664
676;683;668;656
648;666;682;703
686;664;672;694
703;703;695;694
680;682;676;680
680;700;719;703
680;696;712;724
720;743;726;716
720;720;720;738
742;767;767;759
736;740;744;752
756;778;767;783
783;736;756;788
802;827;831;831
824;831;831;830
804;800;796;800
780;772;768;772
764;776;783;783
783;736;724;748
751;751;750;751
743;716;712;744
743;712;712;730
732;751;735;704
688;703;703;695
671;656;652;679
655;640;640;671
639;616;648;663
639;647;655;671
655;640;648;660
686;687;687;696
692;704;726;743
743;759;746;748
767;759;736;760
770;774;767;779
767;763;744;782
791;783;764;768
752;768;756;778
790;783;756;768
768;783;783;781
762;768;756;780
807;776;768;768
776;794;792;788
798;794;784;784
776;784;790;796
798;815;799;796
788;800;808;816
828;850;844;856
876;895;868;896
919;882;872;888
884;896;895;895
864;856;848;856
868;887;863;847
820;812;822;831
784;792;792;804
815;768;772;794
791;770;756;768
768;744;720;728
751;751;722;720
720;728;742;734
720;716;708;712
704;704;704;708
726;740;735;759
751;783;767;767
770;780;782;799
807;776;776;788
792;815;813;815
807;823;814;802
788;784;784;808
804;808;800;808
804;812;818;824
822;830;812;812
804;804;800;804
808;816;808;808
816;855;847;836
832;834;836;840
844;860;852;856
876;879;870;864
856;864;864;878
895;872;868;888
896;904;904;926
951;930;941;959
936;944;959;975
967;959;959;930
912;939;919;927
922;916;906;898
876;864;850;848
852;863;844;832
836;863;855;859
855;847;847;861
832;820;800;772
780;799;783;752
768;783;751;736
760;767;746;728
740;783;759;765
759;748;752;748
772;792;799;799
756;776;784;808
824;828;818;822
855;816;820;838
834;824;832;854
858;863;863;863
863;866;844;848
848;848;840;856
871;875;879;887
894;895;887;872
864;864;868;895
895;887;872;880
896;896;892;908
896;888;896;884
888;896;896;896
884;918;911;898
876;884;896;896
911;919;896;920
940;975;967;975
975;991;972;966
960;991;987;975
948;944;936;950
951;959;949;938
916;924;918;907
895;884;868;864
864;885;887;879
864;856;863;864
848;863;871;858
816;808;800;792
810;811;797;783
780;768;744;752
760;775;783;764
752;748;760;776
748;799;807;799
788;784;776;804
826;845;847;863
858;852;840;836
832;840;840;848
848;856;875;878
864;891;887;879
864;868;864;872
888;911;895;895
874;880;896;911
895;872;880;896
886;884;884;896
900;927;888;896
896;908;914;911
900;927;923;927
919;904;900;910
916;927;896;896
918;916;908;914
924;975;983;991
964;968;984;1004
1015;1019;1005;984
980;1002;1007;998
974;974;968;966
956;954;936;928
924;927;911;907
883;872;868;872
872;911;872;864
872;890;895;895
895;887;852;832
820;816;804;816
831;784;780;772
772;780;772;780
778;783;783;783
783;782;760;784
792;815;803;780
792;836;832;840
848;879;863;852
852;872;883;893
878;884;890;906
895;911;907;888
872;880;896;911
903;895;898;884
896;902;911;911
911;906;880;880
896;919;894;902
896;900;900;908
927;896;896;914
926;916;900;896
900;922;920;912
906;908;912;918
924;943;927;918
928;928;956;988
996;1007;992;992
996;1006;1023;1023
1012;1018;1014;1018
1006;990;976;972
968;991;971;948
932;951;935;925
908;911;894;880
872;880;894;903
886;895;895;911
895;895;879;863
855;847;824;816
800;815;799;807
768;768;768;770
756;772;756;756
760;776;772;744
768;780;780;796
780;776;788;800
808;838;855;863
863;863;871;868
856;868;879;895
895;895;879;864
864;856;868;880
880;894;892;882
872;876;880;902
892;911;895;884
872;868;872;909
895;889;884;896
896;896;888;896
880;888;911;896
899;896;902;884
907;896;880;896
896;911;915;896
896;896;896;920
948;954;960;962
968;980;990;994
1007;1011;1006;1000
992;988;980;980
1003;996;992;984
984;968;960;948
956;959;959;959
959;959;928;920
920;928;943;951
959;943;930;935
923;880;895;911
903;890;868;856
852;856;862;879
879;863;879;887
871;875;875;879
895;887;903;895
927;896;872;910
924;951;953;942
940;952;975;967
948;967;966;948
960;972;970;960
960;960;960;960
976;976;991;999
1007;1015;1015;1023
1010;996;992;996
1012;1023;1006;1000
1012;1016;1032;1016
1030;1039;1023;1020
1024;1030;1023;1039
1031;1023;1024;1008
1024;1039;1023;1039
1039;1035;1012;1024
1012;1008;1024;1024
1040;1056;1072;1078
1095;1080;1072;1076
1074;1074;1068;1060
1060;1071;1078;1054
1032;1024;1008;1024
1004;1036;1023;1007
996;1003;991;976
952;956;964;959
940;936;932;934
928;908;896;896
896;876;864;879
875;854;832;808
818;831;811;792
776;780;778;780
788;767;748;756
776;791;758;776
784;798;815;789
780;800;822;828
836;847;834;832
824;840;840;832
846;863;863;863
863;852;840;863
863;870;858;848
862;871;874;860
848;871;879;866
860;848;848;868
879;863;863;867
879;856;864;864
876;887;868;888
903;884;872;864
872;895;876;872
880;876;872;864
872;887;844;868
907;903;911;904
912;920;924;922
926;912;910;923
896;896;880;880
876;860;860;856
848;844;840;832
820;800;780;768
752;752;764;767
767;750;747;735
743;751;751;735
716;692;684;656
640;646;616;600
596;592;594;568
560;536;536;528
512;512;512;522
511;511;527;519
500;527;518;512
512;520;528;528
536;528;524;528
559;551;543;532
543;555;536;520
512;512;512;512
516;518;516;524
524;535;527;527
518;508;512;511
527;510;511;511
511;510;488;480
488;511;490;480
480;484;484;496
502;507;508;503
480;464;460;452
456;470;460;468
463;448;432;420
416;462;447;448
456;480;494;494
484;503;493;493
495;491;472;448
440;454;447;415
399;384;384;394
398;363;332;308
308;335;319;287
260;260;268;256
228;240;244;248
260;255;252;228
184;176;164;152
140;151;127;101
72;100;111;95
102;87;87;74
52;36;32;32
70;31;39;36
40;56;60;95
95;111;111;127
143;127;135;127
143;151;132;108
120;128;122;143
135;126;112;128
138;167;159;143
128;143;128;128
128;128;142;159
158;159;159;159
159;158;152;136
128;140;136;152
174;182;172;160
160;152;152;148
164;178;190;196
196;207;207;207
183;168;192;216
234;231;224;256
279;271;279;276
271;256;236;236
256;256;240;240
250;255;255;239
224;240;248;242
239;239;223;223
219;207;207;191
175;191;168;148
144;152;154;159
151;142;127;111
119;108;88;84
91;79;47;38
14;24;47;11
0;0;0;0
0;0;0;0
0;14;15;0
0;0;16;36
52;55;46;63
56;40;63;55
58;79;95;72
56;48;48;68
95;95;68;64
88;100;118;111
112;127;109;101
96;108;120;118
112;128;131;127
120;96;100;104
128;151;127;118
112;136;159;119
110;116;126;135
135;112;136;159
159;150;144;140
144;158;191;191
207;206;200;192
192;196;192;184
176;176;184;196
192;176;164;152
132;136;126;126
124;127;127;124
120;127;108;96
96;76;68;72
96;95;72;64
64;80;80;76
72;76;88;95
90;80;68;72
95;63;48;64
72;86;90;86
72;95;95;95
95;98;84;80
80;107;111;95
77;64;80;98
106;95;111;108
96;68;78;79
64;88;110;107
111;76;64;68
80;103;111;111
111;110;96;88
88;107;88;80
72;84;95;107
88;88;72;80
86;84;76;64
64;68;64;48
40;64;72;74
64;87;63;40
64;64;48;48
90;79;63;87
86;72;68;76
72;95;95;95
87;48;72;76
84;79;58;52
48;68;95;95
95;95;90;76
64;64;76;95
79;71;87;95
95;95;107;84
80;110;111;95
74;68;84;107
96;102;96;88
80;88;92;95
92;111;111;109
104;88;72;64
88;95;95;95
103;80;64;74
64;68;80;103
107;95;66;64
72;111;95;111
111;111;104;96
92;119;111;111
119;96;76;74
72;95;111;88
72;64;64;64
64;88;95;95
87;64;68;94
102;111;75;64
64;92;109;111
111;111;110;111
118;108;88;80
88;95;91;70
64;80;84;72
68;76;76;80
95;95;95;95
102;94;84;102
111;111;111;87
64;80;96;111
111;70;64;80
102;111;79;68
92;96;108;111
107;111;92;72
64;64;64;80
103;111;95;95
95;84;64;64
84;95;66;72
102;106;90;72
68;72;80;72
90;90;90;76
72;95;80;72
64;64;56;64
92;95;79;52
64;52;64;76
88;91;86;88
78;74;80;78
84;95;95;84
72;64;48;64
94;95;95;95
110;87;64;72
76;103;84;72
64;64;76;95
95;87;79;79
87;109;94;72
72;100;88;88
80;92;103;95
92;103;95;95
103;111;95;64
92;111;111;111
111;72;80;110
119;123;111;76
84;96;88;111
111;111;111;96
80;64;72;96
111;111;104;88
72;77;95;110
104;111;108;92
72;64;68;72
90;95;95;95
111;110;88;72
72;100;111;95
64;64;64;72
88;95;95;109
108;80;79;92
64;64;68;88
95;88;72;64
64;72;80;80
78;52;59;79
74;64;64;68
95;59;56;68
90;95;95;95
103;102;103;110
102;108;111;111
106;96;88;72
68;76;80;84
103;90;64;64
72;95;94;72
64;72;64;64
72;87;76;76
76;64;48;47
40;40;44;48
56;48;52;78
76;64;40;32
40;40;52;60
64;68;68;72
78;79;87;87
86;68;48;48
70;86;56;44
64;95;79;71
52;48;48;52
64;84;94;92
92;64;52;71
86;64;56;87
94;84;64;79
64;58;90;72
64;64;68;78
74;94;82;68
64;64;64;48
48;74;79;40
64;72;94;91
79;88;68;64
64;64;64;56
64;91;91;95
40;68;76;84
95;90;80;72
72;68;84;95
95;76;64;64
72;91;95;80
64;68;64;56
64;76;76;68
64;78;78;76
78;72;56;76
85;91;94;95
94;78;64;60
87;95;95;88
80;95;60;68
64;80;84;94
100;76;64;48
64;82;95;95
79;48;64;64
72;95;71;52
52;72;94;95
95;84;64;74
95;72;56;52
64;95;95;87
60;64;64;80
92;88;80;72
64;48;44;40
64;95;46;44
64;87;94;87
48;64;86;95
76;64;48;48
68;90;86;91
95;79;79;58
64;94;103;103
103;88;68;76
107;103;111;107
92;68;64;79
87;95;69;64
64;76;90;98
103;92;76;68
76;76;64;72
80;95;87;60
52;64;76;95
50;64;72;95
95;95;87;95
80;76;72;72
72;72;64;48
48;72;91;95
78;60;52;48
64;82;95;95
103;107;111;111
102;84;76;84
92;76;64;64
80;95;95;90
64;64;95;95
94;98;94;80
64;64;48;64
76;95;87;79
52;76;103;95
95;103;84;72
68;64;52;48
72;95;95;87
71;64;72;80
95;84;95;102
110;87;64;88
103;103;84;80
76;72;84;95
95;101;92;76
80;100;111;78
68;111;95;79
64;80;88;94
102;108;106;100
98;88;80;76
76;84;92;90
94;111;111;102
84;94;88;88
80;80;95;100
92;92;72;68
80;80;80;76
68;72;72;80
95;40;64;76
87;95;80;64
64;64;78;91
86;86;76;68
72;64;56;56
56;78;87;79
79;63;48;48
68;94;92;76
64;72;94;95
76;72;76;84
64;52;79;78
64;64;48;48
56;74;94;79
44;48;56;64
64;64;68;64
56;74;72;79
86;95;95;94
76;86;95;84
76;64;64;64
87;82;64;68
80;82;84;95
94;72;68;64
68;64;64;68
68;95;95;87
87;95;95;88
90;103;95;95
95;111;100;88
84;96;111;110
98;72;78;95
109;92;68;87
91;111;95;87
64;96;111;111
111;95;78;68
84;96;94;106
111;111;111;111
104;104;110;123
95;72;80;80
96;108;104;96
92;76;64;73
79;100;80;72
72;68;76;76
68;80;92;95
95;95;95;95
88;76;80;80
95;103;88;84
84;92;95;71
64;64;88;95
95;76;64;87
102;82;64;64
80;90;86;95
102;103;103;103
92;72;64;68
88;103;95;75
64;80;72;64
56;52;48;64
72;78;74;64
56;48;40;48
64;66;72;79
87;91;95;84
64;68;76;82
64;48;79;84
52;48;64;91
93;92;95;95
95;76;64;71
78;87;95;102
88;72;64;72
94;87;52;64
80;86;84;95
94;95;88;92
102;95;84;95
100;95;64;64
72;95;100;103
109;95;77;95
87;103;98;72
95;100;72;72
76;95;106;80
68;72;80;90
84;88;72;72
68;64;76;95
95;80;58;79
95;94;80;86
82;72;64;64
78;95;95;79
48;76;88;103
87;66;52;68
80;95;95;95
111;56;72;102
95;80;72;64
64;64;64;64
84;74;68;78
90;95;95;86
74;72;56;79
86;64;48;56
64;72;86;84
76;76;64;56
64;85;78;86
94;95;95;103
100;84;68;64
64;52;52;78
95;72;52;44
48;64;84;86
72;64;80;82
76;56;52;64
72;86;84;92
95;95;95;95
95;76;64;48
64;80;95;95
95;76;64;56
52;64;78;76
64;64;66;79
76;68;64;44
52;68;79;87
79;59;46;48
74;84;72;64
64;56;48;56
76;79;76;72
94;71;48;64
64;72;78;86
86;79;92;95
90;76;80;84
84;74;72;64
64;56;72;95
79;79;79;87
64;56;68;92
95;56;52;88
95;72;56;52
48;44;40;64
64;74;86;79
79;87;79;52
64;72;84;95
94;80;64;64
64;84;89;80
90;95;95;95
76;76;84;76
88;82;92;76
64;64;64;68
82;84;76;64
52;72;87;90
92;95;87;95
95;72;64;64
64;52;52;80
92;93;92;95
95;88;72;68
68;95;90;76
64;56;64;80
92;72;48;40
44;44;56;48
56;72;78;64
48;44;44;36
48;87;79;51
48;78;95;63
40;72;95;52
48;64;86;94
94;64;48;48
48;48;56;64
64;68;64;64
72;64;56;64
79;56;40;36
48;52;52;70
78;64;52;56
76;87;63;63
40;48;64;72
70;72;64;48
40;44;64;64
64;72;64;48
56;72;58;48
40;48;70;66
72;52;52;68
68;79;87;84
68;56;56;87
87;87;79;63
52;72;80;95
92;95;100;88
72;68;56;64
78;95;63;48
68;95;95;95
87;95;102;90
80;80;98;95
64;64;64;76
76;80;64;52
52;64;56;64
95;87;88;95
95;48;72;78
86;86;84;95
95;60;64;94
92;64;56;52
64;76;72;87
92;82;76;78
80;72;90;95
48;72;92;88
76;84;86;95
84;64;52;70
95;84;68;64
80;86;90;88
88;76;64;68
92;72;64;56
78;95;95;95
95;95;107;111
107;95;79;68
64;84;96;111
95;70;64;92
111;95;64;68
98;95;87;66
64;84;103;111
111;94;64;72
96;90;80;72
84;102;92;84
72;72;72;76
86;84;78;72
72;64;64;64
64;64;72;87
82;56;63;70
56;76;60;68
74;64;70;68
64;74;66;64
70;64;68;68
68;74;66;68
70;79;64;76
64;78;56;48
64;76;84;84
95;55;48;78
92;80;95;95
103;111;111;111
111;98;80;72
76;88;92;102
92;80;80;76
72;64;64;64
80;82;128;184
244;308;367;404
420;428;448;472
504;511;518;512
532;568;598;623
639;671;687;711
724;728;762;797
827;871;891;900
918;928;944;970
1004;1024;1044;1076
1119;1139;1160;1190
1220;1247;1250;1280
1300;1316;1336;1380
1394;1424;1458;1490
1508;1556;1594;1627
1647;1644;1690;1718
1743;1736;1748;1768
1784;1806;1851;1871
1883;1895;1902;1896
1924;1975;1977;1980
1984;1988;2031;2047
2071;2068;2064;2072
2080;2088;2096;2110
2130;2167;2191;2197
2190;2192;2210;2233
2249;2263;2267;2254
2260;2260;2276;2284
2288;2296;2308;2308
2316;2318;2316;2318
2312;2319;2316;2320
2320;2316;2351;2365
2363;2359;2340;2340
2342;2353;2375;2391
2388;2374;2383;2396
2415;2396;2414;2422
2424;2427;2443;2428
2450;2432;2441;2432
2428;2447;2428;2452
2450;2438;2446;2432
2424;2440;2448;2470
2483;2462;2464;2464
2470;2495;2507;2511
2500;2472;2466;2476
2485;2503;2495;2480
2456;2476;2487;2487
2485;2474;2462;2440
2420;2436;2447;2459
2440;2432;2408;2418
2453;2447;2427;2416
2418;2412;2412;2443
2441;2416;2418;2408
2392;2388;2384;2388
2388;2380;2394;2415
2431;2435;2421;2431
2439;2432;2434;2425
2424;2416;2421;2446
2428;2436;2444;2442
2456;2491;2456;2448
2458;2450;2456;2460
2456;2452;2448;2486
2495;2495;2487;2468
2472;2476;2496;2504
2496;2472;2511;2520
2492;2488;2492;2511
2535;2543;2542;2520
2535;2559;2556;2540
2536;2540;2544;2548
2559;2597;2599;2590
2560;2559;2559;2564
2560;2560;2562;2570
2540;2558;2583;2591
2586;2560;2544;2550
2564;2562;2572;2572
2590;2621;2592;2584
2586;2600;2611;2631
2623;2619;2615;2590
2588;2584;2570;2564
2569;2607;2590;2570
2556;2559;2558;2566
2561;2573;2559;2558
2564;2560;2548;2552
2568;2591;2591;2575
2568;2580;2572;2544
2532;2575;2559;2552
2560;2574;2564;2538
2536;2552;2575;2590
2591;2575;2559;2575
2559;2556;2562;2564
2566;2562;2568;2570
2568;2575;2577;2580
2592;2592;2592;2594
2594;2598;2596;2600
2650;2650;2639;2624
2624;2642;2645;2663
2660;2648;2666;2687
2703;2703;2701;2699
2698;2674;2664;2664
2680;2674;2674;2676
2688;2696;2706;2704
2700;2715;2723;2727
2716;2692;2688;2688
2688;2708;2727;2715
2704;2722;2731;2710
2708;2714;2704;2700
2714;2706;2706;2716
2712;2720;2714;2720
2762;2758;2764;2785
2774;2772;2789;2786
2788;2804;2802;2796
2792;2800;2796;2784
2794;2798;2824;2815
2814;2826;2810;2793
2784;2800;2812;2819
2815;2815;2799;2799
2811;2802;2792;2796
2800;2815;2853;2826
2788;2780;2799;2823
2823;2784;2768;2798
2826;2768;2776;2799
2815;2827;2811;2822
2806;2792;2800;2794
2808;2859;2855;2863
2866;2828;2818;2818
2851;2874;2878;2890
2884;2850;2852;2866
2860;2857;2850;2848
2854;2850;2869;2892
2856;2854;2856;2854
2860;2864;2862;2862
2866;2878;2879;2893
2933;2918;2890;2888
2908;2943;2951;2938
2928;2910;2937;2928
2930;2948;2948;2928
2934;2936;2946;2954
2952;2958;2944;2924
2983;2987;2983;2987
2986;3002;2994;2991
2970;2958;2952;2960
2969;2998;3010;3000
2990;2988;3010;3019
3003;3000;3000;2996
3000;2994;2988;2978
2994;3031;3029;3000
2984;2988;2980;2970
2970;3007;3005;2980
2962;2956;2960;2962
2960;2987;3006;3007
3018;2984;2975;2988
2983;3007;3009;2968
2956;2954;2948;2948
2959;2996;2956;2944
2953;2946;2946;2922
2944;2948;2948;2957
2956;2952;2960;2956
2972;2982;2976;2972
2982;3004;3032;3044
3040;3028;3026;3036
3063;3081;3055;3040
3060;3089;3080;3076
3064;3036;3042;3054
3085;3083;3064;3063
3058;3076;3081;3062
3048;3095;3107;3076
3044;3048;3060;3062
3060;3087;3103;3085
3062;3102;3102;3066
3072;3060;3082;3076
3064;3100;3107;3076
3058;3087;3111;3097
3082;3062;3096;3106
3099;3106;3108;3086
3109;3111;3117;3096
3098;3108;3112;3116
3120;3092;3082;3091
3085;3080;3072;3060
3066;3074;3076;3060
3069;3115;3094;3076
3088;3060;3056;3095
3099;3085;3054;3056
3076;3074;3064;3060
3068;3115;3099;3074
3098;3105;3080;3048
3040;3103;3103;3098
3064;3044;3054;3056
3062;3072;3056;3068
3131;3092;3072;3062
3064;3074;3074;3074
3076;3064;3100;3112
3109;3084;3104;3126
3110;3086;3111;3143
3141;3114;3089;3111
3093;3112;3130;3141
3136;3140;3140;3112
3096;3086;3099;3135
3144;3100;3096;3102
3107;3100;3100;3114
3104;3104;3114;3106
3090;3090;3090;3088
3090;3119;3151;3146
3144;3116;3114;3108
3102;3129;3147;3151
3147;3133;3142;3135
3120;3118;3120;3118
3122;3132;3136;3120
3124;3122;3157;3183
3184;3160;3166;3168
3164;3166;3182;3203
3187;3172;3202;3182
3183;3183;3180;3180
3179;3183;3180;3191
3178;3182;3183;3162
3183;3155;3176;3164
3160;3161;3165;3174
3172;3171;3180;3177
3174;3179;3178;3178
3178;3163;3161;3168
3160;3158;3169;3167
3156;3152;3168;3160
3159;3160;3138;3168
3156;3156;3170;3169
3166;3179;3174;3178
3206;3176;3207;3160
3192;3202;3173;3207
3197;3184;3200;3200
3176;3176;3186;3190
3189;3188;3216;3220
3188;3176;3182;3186
3200;3222;3233;3235
3229;3226;3223;3190
3194;3218;3225;3231
3201;3172;3205;3215
3207;3203;3210;3226
3221;3223;3241;3245
3244;3242;3226;3202
3200;3188;3190;3196
3215;3209;3205;3202
3203;3201;3190;3194
3200;3202;3200;3208
3208;3210;3209;3231
3277;3249;3232;3218
3222;3215;3231;3238
3270;3232;3204;3204
3200;3192;3200;3194
3200;3192;3196;3194
3192;3226;3239;3236
3220;3178;3219;3231
3239;3239;3231;3221
3220;3218;3201;3190
3194;3201;3213;3193
3190;3176;3176;3178
3188;3200;3188;3186
3186;3180;3176;3199
3191;3206;3211;3186
3200;3200;3217;3234
3212;3192;3214;3250
3253;3210;3208;3223
3227;3255;3266;3252
3232;3216;3206;3206
3210;3206;3202;3216
3232;3208;3204;3194
3208;3203;3200;3229
3259;3244;3204;3201
3210;3230;3231;3224
3231;3247;3247;3222
3211;3229;3216;3210
3216;3222;3210;3210
3234;3268;3234;3214
3220;3218;3206;3224
3230;3242;3267;3269
3279;3240;3228;3224
3220;3263;3266;3240
3236;3240;3240;3245
3253;3266;3283;3290
3318;3284;3254;3285
3303;3276;3278;3295
3317;3256;3249;3293
3303;3305;3290;3280
3256;3244;3228;3220
3247;3235;3219;3212
3218;3216;3204;3204
3215;3227;3208;3210
3208;3208;3210;3212
3174;3231;3241;3232
3241;3210;3185;3194
3220;3239;3247;3210
3192;3196;3202;3196
3208;3196;3202;3208
3208;3200;3216;3220
3204;3220;3215;3214
3228;3263;3255;3232
3264;3255;3234;3260
3284;3286;3271;3240
3256;3256;3228;3222
3250;3247;3244;3236
3234;3245;3252;3239
3236;3264;3279;3286
3290;3261;3244;3252
3260;3264;3246;3238
3277;3278;3248;3252
3272;3270;3244;3255
3281;3301;3301;3285
3268;3276;3305;3290
3268;3264;3274;3291
3327;3284;3264;3290
3302;3272;3274;3292
3324;3330;3298;3286
3288;3304;3319;3308
3309;3304;3292;3292
3288;3280;3276;3274
3292;3306;3298;3276
3272;3305;3299;3307
3315;3288;3258;3257
3291;3295;3291;3287
3283;3315;3315;3316
3318;3296;3274;3260
3252;3248;3244;3242
3232;3244;3263;3247
3239;3228;3236;3267
3252;3234;3222;3229
3218;3225;3236;3227
3216;3230;3242;3254
3291;3241;3240;3254
3295;3286;3283;3275
3308;3316;3280;3265
3285;3291;3287;3290
3315;3308;3282;3270
3289;3331;3276;3258
3284;3326;3311;3280
3292;3284;3278;3286
3284;3292;3288;3278
3269;3286;3287;3272
3272;3317;3329;3326
3326;3296;3292;3292
3296;3314;3300;3292
3284;3327;3335;3327
3343;3300;3284;3303
3318;3351;3322;3292
3292;3308;3313;3347
3340;3351;3357;3353
3346;3340;3304;3306
3323;3304;3300;3296
3288;3296;3292;3286
3277;3301;3307;3288
3276;3314;3331;3323
3288;3267;3295;3311
3321;3312;3276;3270
3275;3276;3301;3326
3306;3282;3276;3288
3272;3276;3266;3264
3264;3264;3244;3240
3234;3234;3234;3229
3232;3244;3234;3238
3227;3250;3246;3254
3258;3261;3287;3293
3258;3265;3264;3256
3252;3271;3303;3299
3295;3308;3300;3284
3280;3286;3281;3282
3272;3295;3322;3327
3323;3343;3331;3324
3319;3299;3292;3290
3288;3298;3292;3288
3284;3317;3327;3300
3288;3296;3308;3322
3313;3292;3296;3290
3305;3317;3307;3306
3302;3296;3310;3316
3353;3338;3306;3298
3290;3308;3351;3347
3330;3290;3285;3280
3280;3280;3286;3300
3333;3340;3298;3310
3308;3323;3339;3341
3353;3328;3288;3321
3341;3339;3308;3280
3310;3322;3302;3280
3305;3297;3288;3286
3285;3286;3276;3272
3264;3258;3270;3264
3262;3262;3270;3272
3256;3264;3273;3307
3316;3288;3268;3256
3240;3249;3263;3250
3240;3270;3267;3254
3275;3260;3264;3263
3264;3256;3278;3271
3244;3238;3246;3240
3258;3262;3257;3264
3255;3261;3264;3280
3288;3310;3327;3337
3326;3318;3288;3282
3303;3327;3337;3327
3317;3303;3292;3288
3284;3288;3290;3296
3292;3282;3315;3327
3341;3328;3298;3286
3280;3317;3337;3327
3339;3324;3328;3304
3276;3315;3347;3317
3312;3286;3292;3299
3296;3305;3309;3305
3302;3327;3331;3306
3298;3316;3332;3333
3300;3296;3292;3288
3288;3318;3347;3353
3366;3312;3310;3359
3363;3353;3351;3343
3343;3334;3333;3327
3319;3327;3325;3318
3292;3311;3308;3294
3286;3323;3335;3327
3325;3296;3268;3276
3273;3276;3295;3307
3327;3318;3300;3286
3276;3297;3280;3276
3262;3268;3267;3260
3250;3260;3279;3271
3250;3264;3282;3295
3291;3294;3299;3270
3258;3256;3248;3261
3268;3299;3303;3283
3274;3276;3272;3272
3276;3298;3333;3310
3299;3304;3286;3303
3307;3341;3327;3316
3319;3319;3305;3298
3299;3292;3286;3298
3308;3316;3300;3300
3318;3309;3298;3293
3292;3302;3296;3296
3304;3286;3294;3339
3340;3309;3312;3328
3314;3284;3294;3290
3288;3290;3299;3296
3292;3306;3300;3302
3321;3346;3343;3339
3328;3288;3274;3292
3327;3320;3285;3292
3315;3312;3316;3318
3320;3318;3320;3324
3320;3320;3323;3317
3317;3313;3307;3311
3310;3306;3296;3301
3317;3356;3342;3331
3321;3299;3272;3266
3268;3280;3272;3272
3272;3260;3260;3287
3292;3298;3281;3269
3268;3258;3242;3238
3240;3240;3238;3238
3234;3224;3220;3239
3282;3242;3216;3228
3252;3277;3273;3281
3284;3294;3290;3293
3285;3278;3264;3278
3298;3323;3322;3311
3296;3288;3286;3288
3282;3282;3280;3283
3298;3280;3280;3285
3274;3280;3307;3311
3295;3286;3308;3322
3304;3308;3300;3290
3282;3317;3339;3333
3326;3322;3296;3280
3289;3337;3327;3331
3335;3304;3272;3295
3322;3327;3314;3303
3299;3307;3293;3278
3295;3343;3334;3329
3316;3304;3272;3302
3327;3306;3287;3302
3326;3343;3354;3355
3358;3351;3343;3338
3339;3316;3280;3282
3282;3287;3291;3290
3311;3334;3317;3314
3317;3291;3276;3272
3270;3264;3250;3271
3256;3244;3240;3236
3295;3272;3240;3240
3242;3240;3261;3259
3271;3299;3264;3228
3224;3220;3218;3220
3236;3270;3258;3255
3224;3208;3223;3211
3215;3253;3254;3263
3238;3212;3258;3259
3278;3276;3242;3234
3232;3234;3236;3254
3252;3253;3244;3250
3258;3242;3258;3285
3303;3268;3246;3263
3282;3287;3279;3270
3263;3277;3271;3258
3254;3279;3311;3297
3268;3260;3286;3301
3311;3285;3268;3276
3288;3296;3278;3254
3262;3278;3270;3266
3286;3311;3287;3272
3286;3323;3327;3327
3330;3309;3296;3268
3268;3281;3307;3323
3316;3328;3309;3300
3284;3272;3278;3287
3292;3300;3304;3292
3292;3295;3306;3291
3286;3294;3289;3304
3320;3314;3288;3310
3314;3312;3300;3286
3268;3284;3301;3301
3307;3298;3286;3260
3248;3248;3242;3238
3242;3269;3247;3236
3236;3232;3232;3224
3214;3204;3200;3209
3230;3234;3219;3210
3190;3196;3197;3201
3200;3192;3208;3220
3213;3218;3216;3204
3196;3197;3214;3206
3235;3255;3231;3214
3236;3228;3222;3251
3263;3266;3236;3226
3225;3224;3224;3224
3228;3244;3240;3220
3210;3224;3238;3251
3267;3276;3248;3224
3220;3271;3276;3267
3240;3232;3228;3220
3230;3278;3267;3244
3216;3275;3282;3284
3268;3236;3236;3230
3224;3279;3285;3256
3232;3238;3279;3283
3285;3294;3295;3303
3272;3246;3265;3266
3266;3279;3290;3263
3262;3266;3272;3289
3309;3322;3292;3274
3266;3286;3314;3321
3312;3301;3300;3282
3256;3244;3253;3263
3279;3280;3252;3232
3232;3218;3228;3241
3236;3250;3255;3222
3226;3226;3208;3205
3202;3204;3202;3194
3200;3196;3190;3215
3235;3226;3186;3187
3189;3192;3200;3188
3182;3188;3186;3190
3200;3188;3196;3196
3200;3200;3191;3218
3231;3206;3208;3186
3207;3270;3259;3228
3237;3236;3220;3219
3271;3250;3236;3216
3219;3227;3216;3218
3216;3234;3248;3236
3206;3203;3214;3222
3227;3261;3255;3216
3215;3230;3234;3219
3212;3243;3220;3238
3216;3229;3228;3232
3227;3212;3224;3220
3210;3200;3223;3220
3204;3201;3204;3200
3197;3200;3200;3204
3200;3194;3204;3206
3200;3188;3210;3217
3214;3221;3214;3222
3224;3224;3220;3220
3245;3271;3248;3226
3218;3210;3208;3208
3205;3192;3190;3204
3215;3200;3200;3225
3212;3200;3176;3172
3190;3210;3227;3231
3200;3188;3186;3182
3186;3191;3190;3192
3200;3194;3192;3188
3178;3168;3178;3180
3178;3184;3180;3175
3215;3180;3180;3180
3170;3198;3229;3226
3214;3178;3184;3204
3210;3200;3172;3192
3190;3194;3209;3220
3230;3248;3228;3232
3220;3192;3205;3243
3250;3251;3240;3226
3204;3194;3241;3250
3222;3208;3190;3200
3200;3188;3190;3200
3206;3214;3192;3200
3210;3186;3190;3196
3215;3247;3242;3220
3188;3231;3226;3214
3214;3247;3237;3243
3220;3192;3195;3208
3218;3251;3226;3194
3212;3204;3202;3219
3219;3235;3235;3215
3200;3217;3194;3200
3263;3244;3216;3208
3218;3212;3201;3202
3200;3188;3188;3210
3207;3195;3184;3190
3186;3187;3194;3192
3200;3184;3172;3180
3196;3229;3210;3176
3168;3169;3178;3199
3222;3222;3184;3172
3181;3175;3172;3170
3164;3163;3154;3152
3165;3151;3148;3158
3160;3160;3150;3146
3148;3132;3140;3150
3134;3137;3136;3140
3163;3148;3182;3207
3204;3199;3189;3186
3186;3208;3208;3188
3184;3180;3178;3180
3197;3195;3202;3219
3221;3215;3198;3199
3205;3182;3180;3192
3200;3192;3178;3179
3180;3178;3178;3180
3178;3205;3215;3205
3180;3190;3211;3174
3188;3215;3203;3174
3182;3170;3184;3199
3199;3233;3212;3210
3204;3177;3170;3174
3180;3207;3197;3215
3223;3223;3218;3202
3168;3160;3164;3187
3231;3230;3228;3200
3204;3232;3190;3178
3203;3187;3182;3190
3184;3176;3168;3168
3178;3164;3156;3187
3210;3215;3198;3172
3156;3168;3181;3187
3164;3152;3152;3154
3144;3148;3151;3140
3136;3128;3124;3146
3150;3120;3104;3100
3092;3097;3088;3088
3084;3074;3072;3066
3103;3122;3084;3074
3102;3111;3118;3125
3123;3139;3126;3098
3102;3092;3090;3094
3125;3157;3155;3136
3118;3118;3116;3114
3112;3122;3116;3112
3104;3108;3117;3147
3151;3132;3098;3101
3111;3104;3112;3128
3108;3118;3124;3124
3112;3098;3092;3101
3123;3132;3096;3084
3111;3100;3088;3084
3100;3130;3084;3092
3096;3097;3114;3135
3139;3145;3128;3108
3094;3093;3092;3088
3082;3087;3080;3084
3074;3074;3075;3083
3119;3126;3104;3096
3102;3109;3127;3134
3108;3104;3118;3138
3143;3146;3146;3135
3114;3118;3088;3064
3084;3092;3104;3082
3060;3086;3101;3098
3096;3052;3050;3056
3062;3078;3071;3066
3072;3072;3060;3064
3072;3066;3071;3077
3054;3054;3052;3061
3093;3101;3091;3087
3064;3048;3048;3052
3050;3064;3060;3052
3064;3062;3072;3064
3060;3095;3082;3072
3060;3103;3119;3108
3082;3082;3072;3054
3076;3097;3085;3067
3058;3075;3064;3064
3086;3081;3083;3065
3064;3111;3103;3087
3081;3058;3062;3072
3074;3072;3048;3050
3064;3069;3080;3088
3074;3054;3062;3099
3111;3103;3082;3065
3064;3066;3072;3060
3070;3074;3066;3064
3086;3111;3119;3109
3094;3048;3103;3107
3096;3093;3071;3056
3060;3066;3073;3074
3099;3129;3116;3078
3062;3081;3098;3111
3094;3084;3048;3044
3058;3095;3071;3042
3048;3048;3046;3042
3048;3042;3046;3037
3024;3036;3037;3049
3071;3059;3037;3046
3044;3040;3026;3039
3044;3042;3034;3024
3023;3047;3033;3016
3028;3008;2994;2986
2976;3018;3030;3030
3020;2996;2974;2974
2968;2968;2968;2970
2964;2956;2962;2960
2956;3007;3014;3011
3012;2994;2980;2978
2976;2991;2999;3002
3007;3007;2985;2968
2958;2998;3013;2984
2952;2948;2948;2940
2948;2952;2940;2944
2928;2938;2936;2944
2934;2971;2983;2986
2983;2964;2928;2928
2943;2985;2972;2968
2960;2932;2934;2946
2926;2926;2929;2930
2942;2971;2975;2969
2959;2955;2926;2912
2922;2934;2951;2948
2934;2900;2904;2902
2900;2942;2959;2920
2910;2951;2900;2888
2884;2888;2874;2886
2895;2855;2834;2816
2792;2772;2760;2744
2740;2731;2676;2652
2669;2643;2603;2573
2526;2463;2381;2256
2144;2036;1973;1893
1807;1723;1623;1508
1424;1338;1260;1191
1103;1015;922;832
768;719;655;552
500;468;416;360
336;304;268;244
236;203;176;160
144;132;154;151
143;127;111;95
88;80;80;80
100;127;107;95
76;96;100;116
122;91;80;96
110;127;127;126
112;112;110;108
96;104;104;126
127;95;80;84
104;118;119;110
96;88;98;111
111;114;118;110
116;127;111;102
107;111;111;111
119;118;88;92
111;104;103;96
100;108;92;98
98;94;98;98
92;100;98;92
88;90;90;90
94;92;86;86
94;79;105;80
76;88;82;76
64;64;76;72
72;95;95;95
103;94;80;80
76;80;76;84
95;95;95;88
72;64;64;72
95;95;80;72
76;90;103;95
95;95;79;64
72;72;72;72
72;92;94;88
92;95;103;107
111;95;108;80
74;103;100;80
68;76;80;76
72;68;64;64
68;74;80;87
76;68;68;68
64;64;64;64
72;87;87;79
79;91;103;90
92;110;111;90
72;68;76;80
94;95;102;94
72;80;76;64
64;52;48;64
80;95;95;84
72;80;95;95
95;56;64;92
103;64;103;95
71;71;71;78
87;98;72;64
72;94;111;95
77;70;64;68
84;107;102;80
64;72;107;95
95;79;64;68
76;90;103;103
94;72;72;90
110;95;95;107
111;111;100;80
95;108;80;86
95;86;91;93
72;72;92;90
94;111;111;95
103;103;95;111
111;87;91;78
80;88;104;111
106;98;96;92
92;110;106;100
96;106;106;88
88;102;111;79
64;76;88;107
94;92;72;64
64;64;68;94
95;103;95;79
64;94;95;64
88;87;87;95
95;95;111;96
88;96;111;95
74;68;76;84
106;107;108;111
104;96;72;72
111;70;64;80
92;111;64;76
92;58;68;80
88;68;68;78
70;76;77;66
79;64;87;64
76;78;64;79
68;79;68;87
64;86;66;78
71;80;64;95
76;76;74;86
95;95;95;95
87;103;100;80
64;64;64;68
86;95;95;76
64;64;86;90
76;86;95;95
109;95;103;80
72;72;68;64
68;76;78;68
64;78;94;95
87;48;64;76
90;95;95;103
100;76;64;64
92;95;95;92
94;80;64;56
56;50;50;48
56;64;64;64
52;72;79;68
64;64;68;86
87;94;95;86
76;80;76;86
95;95;103;95
87;64;64;72
100;87;60;64
88;94;111;95
95;95;95;103
95;68;80;88
92;111;103;95
86;64;90;94
96;111;111;110
92;72;66;66
64;64;68;92
88;88;95;95
95;95;79;64
72;80;80;103
103;107;106;92
84;88;92;100
104;111;111;109
96;84;80;72
72;103;95;66
64;80;94;84
92;107;111;95
86;74;76;74
64;72;80;76
72;72;88;95
87;95;102;84
84;84;80;84
95;103;111;79
64;80;102;102
111;107;104;111
110;92;72;72
96;87;68;87
79;64;80;84
94;111;109;96
80;72;80;80
88;107;87;56
80;84;72;68
76;95;95;95
103;103;92;64
64;72;88;94
80;64;91;72
64;84;90;95
95;95;70;74
87;94;68;64
64;80;95;95
95;92;64;91
105;76;64;56
64;72;84;95
95;52;64;64
68;76;80;86
84;64;48;46
50;58;60;63
59;48;84;95
95;95;76;64
48;64;84;80
64;48;48;64
92;79;91;95
84;64;56;56
48;64;86;79
48;52;84;79
48;76;68;64
86;71;54;48
48;44;48;64
76;84;86;95
95;87;95;103
80;64;64;64
102;103;102;102
111;95;64;80
88;100;111;95
87;64;68;72
92;92;106;111
111;95;76;64
88;84;80;84
80;80;84;88
80;68;64;64
64;64;72;93
95;90;76;56
48;48;80;95
71;48;76;86
95;95;88;80
84;84;82;95
82;72;64;64
80;95;79;79
79;87;79;64
64;80;88;76
64;64;86;95
95;92;72;56
64;64;64;78
68;52;48;64
68;84;84;84
78;74;72;64
64;64;68;64
64;86;87;84
64;64;64;76
93;90;82;84
86;78;64;48
44;72;95;50
64;76;86;88
90;92;90;72
64;64;64;95
87;48;64;64
64;64;44;40
56;79;76;52
40;32;56;68
76;56;40;77
64;40;40;52
87;32;48;72
79;79;76;76
95;91;95;95
95;80;64;56
60;48;48;68
76;95;95;75
48;64;64;84
95;95;95;52
84;95;52;64
92;103;95;87
71;64;64;64
64;68;64;68
72;72;78;70
68;64;56;48
56;72;79;63
63;63;63;50
48;80;82;76
74;72;78;94
95;95;95;86
72;68;64;64
66;80;90;95
95;76;64;48
48;64;72;93
79;44;64;78
84;95;95;90
76;80;76;82
95;88;68;52
48;44;64;80
95;50;48;64
76;78;72;82
93;88;72;52
64;64;72;70
64;64;56;64
64;95;63;44
48;64;76;84
84;90;88;94
95;90;76;72
72;76;90;95
95;95;95;84
64;64;76;82
102;103;107;103
109;110;92;72
76;80;80;84
88;72;56;64
76;78;90;82
64;56;79;95
92;72;56;52
48;64;92;71
44;68;90;82
64;48;48;48
64;56;48;56
64;64;56;48
48;52;76;79
75;47;48;48
64;78;87;84
93;91;76;64
64;72;72;64
48;48;64;87
79;59;44;44
64;76;84;70
52;64;79;91
79;44;52;52
64;72;91;79
71;44;64;84
93;76;64;52
74;63;44;48
64;72;78;95
79;44;64;76
88;88;72;64
72;80;76;64
56;64;82;68
48;40;48;48
48;52;68;76
79;56;40;32
48;52;40;44
40;32;32;32
48;58;52;40
52;79;63;79
79;45;40;52
72;84;87;87
95;95;95;107
98;88;88;103
98;95;87;76
64;80;102;95
103;103;80;68
64;68;76;84
88;100;95;87
95;79;64;64
88;82;84;80
76;76;95;94
88;80;72;64
52;44;64;78
84;91;62;48
64;68;86;87
87;79;63;48
52;52;64;95
79;48;64;91
95;88;64;58
62;48;68;78
95;63;50;48
72;84;68;72
74;76;64;64
68;84;87;72
64;48;48;56
64;87;79;79
63;40;76;95
79;87;78;62
52;64;72;80
94;80;76;64
64;64;64;48
64;64;68;78
68;74;64;64
76;79;78;76
72;84;86;78
78;92;95;95
95;52;64;82
88;95;95;95
68;64;64;72
88;79;52;56
64;68;76;78
74;64;48;40
48;68;87;95
95;95;95;82
84;92;76;76
80;78;64;52
64;64;68;64
64;48;40;48
64;79;87;40
64;91;87;95
90;76;68;64
64;94;95;94
76;64;87;94
76;72;94;111
119;119;118;96
96;104;128;283
615;808;1000;1164
1327;1376;1472;1559
1599;1615;1616;1618
1636;1624;1612;1600
1592;1584;1568;1566
1564;1562;1540;1512
1518;1531;1508;1508
1496;1519;1535;1530
1528;1536;1520;1536
1550;1579;1560;1552
1560;1583;1570;1568
1560;1560;1560;1556
1556;1564;1564;1572
1567;1552;1536;1540
1548;1548;1536;1544
1544;1567;1540;1536
1520;1551;1559;1567
1540;1528;1559;1567
1550;1536;1536;1562
1557;1567;1567;1563
1544;1540;1556;1567
1559;1536;1536;1536
1536;1536;1524;1536
1540;1536;1522;1540
1535;1567;1567;1567
1575;1590;1584;1588
1584;1584;1584;1588
1592;1592;1596;1592
1596;1611;1595;1591
1575;1548;1556;1567
1575;1561;1547;1535
1524;1504;1516;1527
1535;1535;1535;1535
1522;1506;1514;1516
1504;1504;1504;1518
1519;1488;1464;1464
1460;1458;1436;1432
1447;1436;1416;1394
1408;1396;1380;1392
1408;1380;1376;1382
1394;1400;1386;1400
1408;1408;1408;1412
1439;1439;1455;1467
1463;1469;1454;1448
1444;1448;1448;1448
1444;1448;1444;1454
1456;1487;1471;1458
1452;1478;1484;1476
1476;1476;1476;1476
1476;1486;1515;1515
1492;1488;1488;1492
1510;1519;1524;1535
1551;1551;1535;1545
1526;1520;1532;1563
1567;1563;1559;1524
1536;1536;1524;1536
1528;1540;1547;1532
1540;1542;1534;1556
1561;1556;1564;1576
1594;1615;1594;1592
1614;1627;1604;1600
1626;1639;1622;1604
1600;1627;1600;1584
1588;1615;1623;1609
1576;1560;1560;1566
1546;1536;1528;1551
1567;1551;1536;1516
1534;1550;1558;1559
1549;1549;1535;1519
1516;1527;1533;1535
1520;1504;1492;1498
1500;1492;1492;1472
1500;1508;1503;1519
1519;1504;1508;1500
1508;1563;1535;1542
1536;1520;1538;1548
1567;1583;1574;1564
1552;1564;1578;1583
1583;1591;1583;1587
1588;1580;1572;1588
1599;1599;1599;1606
1584;1584;1615;1613
1613;1600;1592;1592
1600;1592;1588;1611
1631;1608;1600;1600
1600;1608;1608;1639
1655;1663;1663;1671
1671;1663;1644;1644
1648;1652;1658;1664
1668;1674;1679;1687
1687;1685;1687;1677
1670;1676;1693;1711
1727;1734;1728;1720
1720;1736;1747;1734
1728;1732;1728;1720
1712;1724;1719;1704
1696;1700;1696;1692
1698;1706;1695;1695
1693;1679;1669;1671
1664;1668;1671;1661
1648;1648;1650;1664
1671;1679;1660;1644
1632;1632;1647;1655
1655;1659;1642;1624
1616;1618;1615;1628
1638;1608;1608;1616
1600;1600;1600;1623
1630;1628;1638;1632
1632;1648;1644;1679
1695;1707;1707;1711
1703;1703;1690;1688
1686;1684;1684;1682
1688;1718;1719;1723
1723;1727;1714;1706
1714;1714;1706;1722
1738;1743;1724;1739
1755;1759;1754;1730
1736;1746;1744;1752
1771;1783;1791;1778
1768;1776;1780;1791
1815;1823;1792;1776
1792;1815;1792;1792
1772;1774;1782;1792
1786;1796;1807;1807
1823;1811;1792;1792
1800;1832;1843;1855
1863;1855;1850;1855
1850;1842;1840;1832
1832;1830;1828;1822
1812;1808;1804;1808
1814;1835;1821;1792
1778;1784;1802;1788
1782;1784;1792;1799
1803;1776;1778;1792
1778;1792;1788;1800
1780;1768;1766;1791
1799;1791;1783;1764
1760;1756;1760;1760
1760;1760;1746;1775
1791;1787;1772;1774
1784;1798;1764;1792
1792;1822;1822;1796
1792;1831;1834;1839
1834;1839;1832;1824
1820;1824;1832;1836
1838;1832;1832;1832
1832;1853;1855;1867
1871;1883;1887;1887
1887;1903;1903;1909
1911;1919;1919;1927
1915;1912;1919;1931
1918;1927;1914;1906
1908;1914;1935;1943
1920;1935;1942;1951
1951;1951;1951;1947
1928;1924;1928;1951
1963;1936;1924;1924
1924;1928;1920;1924
1944;1979;1999;2015
2015;2027;2004;2000
2014;2039;2039;2031
2031;2047;2047;2047
2034;2008;1994;2000
2027;2029;2000;1996
1999;1992;1964;1964
1962;1952;1948;1956
1967;1975;1975;1983
1944;1952;1979;1977
1944;1936;1932;1919
1922;1908;1910;1916
1917;1931;1935;1925
1896;1884;1903;1918
1910;1919;1915;1912
1908;1908;1924;1940
1935;1936;1920;1924
1922;1920;1936;1944
1952;1983;1983;1995
1989;1968;1982;1988
1978;1980;1992;2007
2015;2010;1999;1996
1994;1994;2013;2039
2047;2045;2047;2047
2042;2063;2028;2024
2020;2024;2020;2039
2047;2063;2047;2063
2048;2024;2024;2032
2047;2047;2052;2040
2048;2063;2061;2028
2028;2075;2063;2047
2040;2062;2047;2050
2036;2050;2056;2063
2061;2063;2047;2066
2080;2102;2086;2078
2066;2068;2064;2056
2050;2048;2048;2034
2040;2050;2036;2050
2047;2075;2048;2032
2052;2046;2046;2047
2063;2051;2024;2018
2024;2032;2024;2030
2038;2075;2048;2024
2024;2026;2026;2039
2037;2039;2029;2030
2034;2024;2010;2012
2012;2047;2038;2028
2016;2006;2025;2030
2022;2047;2047;2063
2047;2016;2050;2059
2024;2052;2008;2053
2056;2058;2048;2048
2038;2052;2040;2056
2052;2050;2040;2048
2059;2048;2034;2057
2040;2052;2053;2040
2064;2060;2036;2052
2048;2040;2048;2054
2063;2079;2063;2063
2061;2055;2028;2048
2036;2058;2059;2062
2048;2048;2036;2079
2086;2087;2079;2077
2066;2079;2079;2075
2060;2068;2087;2056
2052;2093;2078;2064
2056;2048;2048;2056
2070;2086;2082;2088
2100;2114;2088;2096
2111;2127;2127;2135
2135;2127;2119;2102
2080;2076;2070;2072
2076;2109;2087;2064
2048;2036;2048;2048
2032;2079;2071;2075
2071;2060;2048;2048
2048;2052;2032;2048
2020;2022;2031;2063
2024;2024;2022;2028
2028;2028;2046;2047
2040;2079;2060;2026
2028;2048;2020;2042
2046;2086;2079;2079
2091;2068;2056;2048
2055;2095;2087;2076
2058;2060;2066;2071
2079;2093;2087;2087
2091;2095;2066;2058
2056;2052;2048;2048
2048;2063;2063;2075
2079;2084;2058;2056
2078;2094;2076;2072
2056;2095;2094;2089
2072;2068;2058;2068
2076;2082;2095;2111
2111;2088;2076;2094
2111;2123;2123;2123
2111;2139;2127;2135
2139;2143;2139;2141
2143;2128;2116;2112
2126;2159;2179;2166
2152;2152;2152;2172
2203;2178;2148;2150
2152;2187;2171;2171
2175;2160;2132;2140
2157;2175;2167;2158
2132;2124;2116;2114
2100;2092;2090;2103
2127;2123;2098;2084
2102;2113;2084;2080
2092;2111;2091;2056
2048;2071;2060;2042
2040;2063;2046;2048
2048;2048;2048;2048
2016;2034;2036;2048
2036;2048;2048;2060
2048;2056;2052;2071
2076;2052;2087;2103
2111;2123;2108;2088
2080;2127;2110;2104
2088;2088;2088;2096
2080;2086;2080;2098
2095;2111;2127;2123
2100;2104;2100;2102
2100;2108;2117;2135
2139;2143;2116;2108
2125;2151;2142;2147
2143;2159;2156;2162
2152;2136;2136;2165
2163;2156;2144;2146
2148;2177;2172;2152
2167;2191;2183;2175
2154;2156;2152;2171
2175;2191;2185;2184
2184;2198;2194;2182
2180;2184;2182;2207
2207;2184;2164;2168
2166;2207;2190;2186
2164;2164;2156;2152
2150;2167;2155;2134
2128;2124;2118;2142
2151;2155;2137;2124
2118;2135;2155;2136
2120;2137;2155;2147
2104;2106;2108;2106
2099;2084;2072;2082
2068;2072;2076;2079
2076;2062;2048;2048
2048;2048;2048;2052
2048;2058;2056;2066
2052;2072;2086;2110
2119;2135;2135;2124
2104;2127;2131;2122
2112;2112;2114;2116
2112;2135;2143;2136
2114;2124;2158;2132
2128;2142;2167;2173
2154;2140;2175;2168
2144;2144;2146;2175
2183;2170;2162;2152
2136;2154;2158;2158
2166;2191;2175;2183
2172;2191;2191;2183
2152;2164;2176;2176
2144;2156;2175;2183
2160;2176;2175;2168
