## File generated by myo_cap software 
## Available from github.com/ddantas/myo_cap 
## Timestamp: 2020-05-01_00-46-03 
##  
## EMG capture settings 
##  
# sampleRate: 2000 
# channelsPerBoard: 4 
# nBoards: 1 
# bitsPerSample: 12 
# ch0;ch1;ch2;ch3
292;260;254;212
192;168;148;132
128;143;127;127
127;124;124;133
127;111;80;84
96;104;96;80
76;80;76;92
111;95;70;64
84;98;102;108
111;111;119;119
119;111;124;108
96;88;100;100
88;84;76;76
88;92;98;105
102;102;92;72
68;76;109;95
64;64;68;84
95;92;109;111
111;100;84;92
111;111;72;68
108;111;106;92
92;96;111;111
119;86;72;88
102;102;100;88
72;80;94;95
64;88;111;87
72;68;88;102
88;76;64;68
92;79;52;64
76;92;88;84
92;92;84;68
64;64;64;76
95;63;48;68
86;94;88;76
72;76;80;72
68;76;95;79
79;87;95;94
80;72;64;64
64;64;64;84
86;88;94;86
76;92;103;95
87;64;64;80
111;52;68;103
95;64;76;111
79;64;72;100
102;92;72;66
79;95;95;80
76;72;64;56
62;52;52;48
64;92;52;44
56;64;76;87
88;95;77;54
56;62;87;76
56;52;48;64
68;72;78;95
95;95;102;108
110;111;111;111
95;72;88;100
108;108;104;111
119;119;119;100
84;84;100;100
108;111;119;119
124;111;86;87
76;80;72;64
72;92;111;95
111;111;95;95
79;76;68;68
88;111;111;111
119;116;108;100
88;118;95;72
92;100;100;102
100;110;96;80
84;111;111;111
111;119;100;84
80;88;92;80
84;92;103;103
111;111;70;72
96;111;70;68
80;100;108;111
111;64;64;64
80;111;68;64
64;88;107;111
111;106;111;111
104;108;92;80
84;84;84;72
68;64;68;95
95;95;76;68
64;76;76;68
84;95;95;103
100;100;84;68
64;64;64;72
80;76;64;48
48;48;48;64
90;40;48;64
87;79;87;95
95;95;79;64
102;87;64;64
72;109;95;95
95;111;111;104
96;111;111;100
96;80;76;95
93;68;64;72
92;102;92;103
111;95;64;88
111;71;64;64
64;76;92;94
94;92;84;103
111;111;111;111
119;95;72;100
100;100;96;88
88;92;92;76
76;64;52;64
64;64;64;52
64;84;87;84
64;68;68;64
68;84;95;79
71;79;87;103
95;87;64;76
100;111;71;64
84;103;100;92
80;84;109;95
103;79;64;100
111;68;64;68
92;111;79;64
92;111;111;111
111;111;119;119
108;96;92;116
119;111;111;72
96;116;111;104
102;110;119;119
103;94;95;111
111;78;80;96
114;111;95;72
84;96;102;92
100;111;111;95
68;84;102;111
119;93;72;80
104;102;100;100
88;88;102;111
111;64;72;92
111;78;64;84
104;78;64;72
96;110;108;84
64;64;64;64
68;80;92;95
95;103;95;111
100;84;68;68
100;79;64;76
95;111;95;74
72;111;64;80
108;95;95;95
87;68;72;84
100;111;111;110
100;88;72;72
103;111;96;108
111;108;96;80
80;111;79;64
72;92;100;100
88;84;111;111
111;79;68;68
80;88;94;94
88;88;92;92
94;108;95;87
64;80;92;111
111;95;95;87
64;80;88;84
80;108;111;87
64;84;96;102
102;111;111;92
100;95;64;80
100;111;95;79
64;92;111;95
87;72;92;96
84;72;64;64
84;72;64;68
72;76;84;64
64;86;92;95
95;95;48;64
84;95;95;95
87;70;64;80
102;103;84;92
84;102;111;95
95;95;111;110
104;104;104;111
111;79;68;80
108;111;84;68
104;111;111;119
111;111;72;96
119;111;103;111
111;127;116;110
124;90;88;96
100;104;119;119
119;127;108;88
88;100;96;92
88;111;111;111
116;119;104;100
116;103;76;76
96;119;111;87
68;80;108;103
95;87;64;76
108;111;95;95
95;111;119;119
119;124;126;127
124;127;127;127
127;127;127;127
127;116;100;100
100;122;119;118
127;125;96;111
88;76;72;84
100;100;100;92
100;111;79;64
76;80;88;102
100;102;111;64
76;92;109;111
111;100;80;72
80;100;111;111
93;95;87;84
64;88;111;95
64;80;92;92
96;86;64;64
64;80;84;102
95;52;68;68
72;95;87;66
64;103;95;95
76;64;64;72
84;100;111;109
111;84;68;72
95;103;111;108
88;88;96;111
79;64;76;76
88;103;94;72
64;64;76;95
95;95;84;72
72;95;95;95
88;92;108;79
64;64;64;80
95;103;103;111
100;108;96;80
68;72;76;84
95;103;71;64
80;107;103;103
96;108;108;111
111;111;87;68
84;80;64;64
52;64;64;84
103;63;64;92
103;87;56;68
100;95;64;64
80;92;95;109
103;64;68;96
111;95;87;95
95;68;68;64
80;84;80;76
84;86;102;103
108;108;88;68
64;68;94;95
95;111;76;64
76;84;95;109
111;104;100;88
80;88;84;76
76;111;95;64
64;80;102;94
92;80;72;68
92;95;52;64
111;95;95;103
111;108;92;80
119;111;111;110
108;127;84;80
118;111;111;95
84;76;72;80
80;96;111;103
79;95;68;64
100;95;68;64
92;103;95;77
72;100;102;109
92;88;111;95
95;95;111;88
72;68;64;64
64;84;88;100
95;71;64;64
92;103;111;111
95;95;79;64
80;119;95;79
78;76;64;88
92;96;106;96
88;111;111;111
104;84;68;76
80;110;111;111
111;119;108;96
88;104;111;126
111;119;127;111
80;127;119;87
80;84;96;108
119;111;87;72
88;127;95;68
80;92;119;95
79;91;95;76
80;104;111;111
119;119;119;116
108;100;92;80
88;92;100;96
96;80;72;72
80;80;84;76
64;64;68;84
95;95;88;64
52;92;87;48
72;95;95;95
87;64;80;92
80;100;94;80
72;64;52;52
68;95;79;52
64;64;68;92
95;95;95;95
64;64;84;76
80;100;95;79
64;76;108;95
64;74;95;108
100;96;100;108
111;111;110;102
88;92;102;111
111;111;96;100
100;88;72;64
64;103;110;102
92;76;64;64
64;56;52;72
103;79;52;52
92;94;86;92
103;100;96;104
111;111;111;95
93;80;100;116
118;108;96;102
119;95;68;88
104;100;100;96
84;92;100;111
111;111;95;70
76;110;111;111
92;96;96;88
72;72;80;84
100;111;95;95
111;100;88;84
102;103;76;64
68;80;88;100
103;108;111;111
95;68;68;80
106;111;95;95
111;111;91;72
88;111;119;95
72;68;92;119
111;111;111;111
76;88;104;110
119;111;72;84
100;110;96;84
84;111;79;71
68;64;80;109
111;95;103;119
108;119;119;111
111;111;86;80
108;103;80;100
100;100;84;88
96;84;92;92
100;111;109;104
108;103;64;96
119;103;79;68
72;84;100;96
80;72;72;72
68;64;64;84
95;87;64;48
76;84;84;89
103;71;68;79
79;64;88;111
66;64;64;80
95;95;71;65
64;102;111;79
64;88;111;95
64;72;92;111
111;95;72;64
64;88;110;105
102;92;64;73
87;95;103;111
118;111;111;95
79;80;96;100
102;111;119;111
118;111;127;95
76;88;111;127
95;72;72;72
96;111;104;102
108;100;92;104
111;87;68;72
104;100;88;80
72;72;72;80
84;103;111;79
64;68;86;102
111;64;80;111
111;64;88;100
109;109;100;88
84;84;94;100
111;94;68;64
80;100;103;95
88;92;111;87
78;64;72;92
111;95;64;76
92;88;72;68
84;95;84;76
68;72;68;68
68;68;87;84
80;84;84;92
95;95;103;95
111;79;73;64
64;72;80;102
103;111;111;111
111;95;111;125
122;127;127;124
116;100;88;88
96;110;119;119
111;111;103;94
76;96;126;127
124;116;96;84
80;117;95;68
96;119;95;95
94;72;92;111
119;117;108;96
88;108;119;119
127;119;103;76
100;127;95;84
72;100;108;116
119;124;123;96
80;96;88;84
96;111;111;111
104;118;127;118
100;127;95;80
96;104;100;119
119;95;72;72
96;108;108;102
100;84;68;64
64;64;80;94
84;102;111;111
100;68;68;64
72;108;95;64
76;92;111;111
87;64;64;80
92;88;92;103
111;111;87;64
84;102;104;110
111;111;111;118
127;116;100;96
104;76;76;100
119;119;125;127
119;127;127;120
104;108;116;124
127;125;127;111
95;80;88;102
108;100;100;88
96;108;119;119
95;72;72;80
92;88;88;92
88;96;108;111
111;111;92;96
92;111;95;95
103;111;108;96
110;127;84;72
88;125;95;95
80;72;100;100
104;104;119;111
116;108;116;127
111;80;76;84
96;103;68;80
88;100;111;111
111;92;80;110
80;107;80;100
86;84;92;90
84;95;84;80
95;76;103;72
64;68;76;92
103;95;68;64
80;111;95;79
64;88;111;111
95;103;103;95
86;72;80;100
111;111;95;95
84;72;100;108
111;110;104;92
80;80;84;88
72;72;111;95
64;80;111;111
111;111;108;84
68;72;92;104
111;111;111;111
92;72;92;108
108;116;118;127
111;92;80;96
112;111;108;116
127;111;95;84
80;96;96;100
92;88;84;84
96;111;75;64
80;92;111;111
95;111;100;92
100;84;80;72
84;88;88;94
111;75;68;64
64;88;111;111
111;87;68;68
88;111;70;68
64;68;72;80
72;94;95;103
103;108;111;111
93;76;68;64
76;84;100;111
79;64;80;92
92;109;111;95
64;92;111;95
103;111;111;96
80;84;88;88
94;94;96;92
108;111;111;78
80;92;96;92
88;76;68;76
102;94;84;76
72;84;88;95
103;95;71;72
100;111;95;95
79;72;96;111
95;87;87;68
64;72;103;108
100;111;111;110
104;111;116;127
111;111;95;76
96;96;100;119
119;127;119;119
111;84;124;119
76;100;127;127
120;108;108;127
127;103;80;112
118;127;103;80
88;127;127;111
103;80;96;100
108;108;100;104
110;119;126;119
111;127;116;108
108;127;111;103
80;100;127;119
103;80;84;84
104;110;110;100
92;96;88;88
88;80;72;64
64;92;84;68
76;102;95;87
64;64;64;64
84;84;103;103
103;111;64;80
92;92;111;111
102;104;104;111
111;117;100;84
84;84;88;88
100;111;95;64
72;100;111;110
92;76;64;64
72;76;92;94
95;103;100;92
106;95;87;64
76;103;102;84
72;84;102;111
103;93;87;79
92;95;111;111
118;108;108;100
96;119;93;76
80;111;119;95
79;76;78;85
64;80;88;111
106;96;108;111
106;84;68;68
80;108;95;79
64;104;111;79
68;76;94;108
107;84;80;84
108;110;108;92
84;88;102;108
109;108;111;95
95;111;95;68
88;100;110;108
119;118;110;108
92;88;119;95
72;119;111;95
111;127;111;86
80;108;119;125
108;127;86;88
110;110;110;127
119;111;127;116
96;100;110;125
127;94;80;80
100;96;100;100
92;88;88;88
88;72;68;76
88;92;103;95
95;111;111;111
108;100;119;119
111;111;127;127
109;84;112;127
127;108;96;88
84;72;84;111
103;80;68;64
64;80;111;79
77;64;76;103
109;100;104;111
111;95;95;95
91;68;76;76
92;100;111;111
92;72;64;68
64;64;76;103
111;64;84;111
110;84;64;64
80;80;86;103
95;72;64;68
80;84;84;64
64;84;95;95
79;62;64;88
111;95;111;111
93;64;92;111
111;111;111;111
90;76;76;72
84;88;76;72
80;84;80;80
88;76;68;84
95;54;64;95
79;52;64;76
88;92;92;100
109;88;68;64
72;111;71;60
64;92;103;94
88;111;87;79
68;96;111;103
111;111;111;111
111;95;84;76
80;102;119;119
110;76;72;88
110;111;95;68
80;96;108;111
111;119;119;90
80;125;111;111
109;87;76;84
116;111;95;72
84;100;116;111
110;96;76;76
104;111;111;111
102;80;68;64
64;68;80;92
94;94;111;109
96;96;108;111
111;103;95;95
87;72;96;111
111;88;68;64
76;92;109;111
111;111;111;119
116;108;92;96
100;119;127;76
92;104;108;116
125;119;100;100
110;119;126;124
112;96;88;96
104;108;111;111
125;119;118;124
127;127;127;127
140;110;84;92
92;82;76;80
96;92;92;108
111;87;76;64
84;111;111;111
78;64;88;100
108;111;119;119
95;68;80;88
84;72;72;84
92;80;92;94
94;80;68;72
86;95;103;103
100;80;68;64
68;64;64;61
63;48;68;95
95;66;52;64
76;72;64;64
64;76;92;92
84;80;68;64
68;95;95;95
84;64;52;64
76;95;77;68
52;84;103;95
95;109;84;64
64;72;76;72
76;92;92;95
101;100;95;103
102;111;111;111
100;100;116;119
126;111;86;76
80;108;111;79
80;88;119;95
84;76;88;100
111;79;64;84
108;102;111;111
95;78;80;100
111;110;111;104
104;111;108;118
111;84;68;104
125;109;103;119
127;127;127;118
100;108;124;127
127;127;103;80
96;112;110;124
127;127;125;116
108;100;84;76
68;88;100;111
111;95;111;125
127;127;111;88
88;118;111;103
80;88;124;119
111;84;76;76
96;119;119;119
116;127;92;76
96;122;127;119
95;80;82;78
80;92;104;111
118;119;111;103
86;76;80;84
116;111;119;108
96;96;104;119
103;72;108;119
127;119;127;127
120;127;127;127
133;104;92;84
80;84;102;111
103;87;87;68
68;76;92;111
111;111;108;80
68;64;68;80
108;111;111;111
119;111;103;119
127;116;88;76
84;92;111;119
119;119;108;88
76;68;68;64
76;92;111;103
95;68;64;84
103;106;96;103
111;111;119;95
87;68;80;100
118;111;119;127
78;72;96;110
108;96;119;119
124;118;100;104
127;103;111;127
127;95;80;112
127;119;127;127
127;116;100;104
112;127;111;95
86;84;96;100
80;72;80;88
110;111;79;64
68;80;92;96
92;76;64;64
80;95;95;79
68;64;64;72
94;103;95;71
64;100;79;64
84;111;87;64
72;72;64;68
68;64;64;68
76;76;82;72
68;95;95;95
95;95;109;104
88;92;111;95
64;102;111;111
111;108;84;76
80;72;72;80
94;92;109;110
111;77;68;64
68;64;64;72
108;95;79;95
95;64;68;80
84;76;76;92
95;95;100;95
94;102;106;100
110;111;111;96
76;78;95;79
85;68;72;96
111;95;64;64
84;111;87;64
80;94;110;111
68;72;110;111
111;119;100;80
88;108;111;111
95;92;79;68
80;108;111;87
68;88;92;92
84;76;64;64
84;95;110;111
103;79;68;84
92;84;68;64
80;103;103;95
103;95;87;77
64;68;76;100
111;111;111;92
84;100;96;108
111;64;80;100
111;95;111;111
111;100;88;92
84;100;111;71
64;88;109;111
111;111;111;96
76;80;76;76
96;88;95;111
95;64;84;94
88;108;111;100
92;88;80;80
84;100;103;109
96;84;88;100
80;80;88;84
80;64;52;64
88;95;56;48
76;94;95;103
95;79;64;64
76;88;92;94
106;95;79;64
76;96;111;111
111;111;92;76
76;108;108;92
80;88;108;110
110;96;84;88
102;111;111;111
116;102;96;92
96;111;119;103
84;76;68;72
84;111;111;111
110;88;88;96
96;111;111;108
110;111;95;103
116;100;92;100
100;96;104;111
111;111;119;125
124;104;96;80
96;111;87;68
88;100;111;110
108;102;96;88
102;108;119;119
111;127;127;127
111;96;127;127
127;127;134;120
126;124;127;120
96;96;124;111
76;100;127;111
103;95;84;76
88;84;100;102
110;102;100;111
111;64;80;104
111;96;100;108
119;119;108;104
104;102;100;119
111;72;84;104
100;119;95;64
84;100;111;111
111;111;127;124
100;88;80;92
119;111;126;111
111;95;84;80
110;103;84;78
72;80;88;111
111;111;100;92
92;88;88;100
100;111;68;64
72;88;98;92
100;79;68;92
84;64;77;95
103;111;106;92
88;96;94;88
76;80;88;103
108;103;100;88
64;64;76;84
76;64;52;64
68;87;92;84
72;64;64;52
64;78;95;79
55;64;78;92
95;87;71;52
64;76;76;72
64;64;80;84
86;68;64;78
84;78;72;84
95;92;76;76
64;64;64;64
72;72;95;79
55;48;64;72
80;78;64;48
71;93;84;76
94;95;79;48
68;103;95;79
64;64;80;93
88;84;95;111
87;64;76;100
102;88;88;88
84;68;52;48
48;64;84;95
95;95;95;103
110;109;104;88
80;72;68;84
109;95;110;111
111;111;111;110
116;119;125;119
100;84;92;102
116;111;103;95
79;88;108;111
111;116;104;104
96;92;104;100
111;111;86;86
72;68;80;84
92;95;64;76
88;80;86;88
95;95;64;64
76;84;95;88
88;95;94;86
88;84;68;64
72;95;95;94
84;68;64;64
88;79;48;64
95;95;84;72
72;95;95;95
95;95;109;94
80;80;88;106
110;111;110;111
111;108;88;84
80;64;64;84
100;111;103;87
64;68;105;108
108;104;100;100
111;111;111;118
116;118;110;96
92;104;110;111
104;100;96;92
84;80;64;64
68;84;92;92
76;64;64;92
95;95;95;79
64;72;92;103
111;111;111;111
119;94;68;84
110;79;76;92
111;95;68;72
96;111;111;111
111;104;96;92
100;119;95;87
72;80;96;100
84;76;92;95
79;64;64;84
80;88;100;103
111;103;95;79
76;76;68;64
92;111;95;79
79;64;68;84
96;103;88;80
80;64;52;64
92;95;90;76
72;95;95;79
64;72;103;87
64;88;95;77
64;68;76;80
92;102;95;88
68;64;95;84
68;64;92;95
103;95;111;111
111;110;96;92
92;88;88;72
64;76;92;103
111;87;64;64
80;111;95;79
72;74;64;64
84;108;108;111
108;111;79;64
72;92;111;95
95;76;68;64
84;111;76;64
84;92;100;111
95;78;68;94
111;95;68;68
88;111;111;111
103;72;84;80
84;96;111;95
71;68;100;100
111;68;64;84
111;78;64;64
94;95;111;102
84;84;100;94
111;111;87;64
84;104;111;119
111;119;119;108
92;76;72;68
84;88;84;103
111;93;79;64
92;111;100;100
92;76;64;71
64;72;111;56
64;64;52;64
68;76;84;72
68;64;64;92
95;79;48;64
92;71;48;64
80;87;56;48
84;87;79;52
64;76;88;95
95;79;64;64
88;103;79;87
87;64;64;64
80;111;103;103
111;111;111;95
76;68;88;111
119;95;95;79
68;72;84;102
111;111;102;100
92;92;88;111
110;111;111;109
95;108;84;108
84;111;92;72
84;95;111;108
96;118;118;111
104;104;100;96
96;96;111;111
95;68;80;96
119;95;79;72
72;88;111;79
64;80;92;98
102;88;88;84
88;103;100;94
92;84;84;94
76;64;69;62
52;84;94;84
72;64;52;48
64;86;84;86
95;95;95;103
95;102;100;84
100;111;111;111
96;80;68;64
64;64;80;103
109;94;72;84
84;84;76;76
84;84;86;78
76;78;84;79
76;76;82;76
78;84;76;76
80;78;87;76
84;84;72;84
76;76;76;78
76;76;72;78
76;72;68;78
84;76;70;84
78;76;78;76
76;72;76;78
76;79;76;72
78;76;76;76
76;76;79;76
76;76;78;76
72;90;68;80
75;78;56;68
52;64;72;95
95;95;76;64
84;95;79;78
68;77;79;79
64;64;80;95
103;95;71;64
64;76;80;80
84;95;103;103
100;94;106;111
111;64;88;111
111;93;72;79
84;87;95;111
118;127;116;100
80;72;72;64
104;103;84;68
64;64;72;80
80;95;87;87
103;109;103;88
80;88;92;100
96;111;87;64
84;111;111;100
84;72;72;72
80;103;103;102
84;68;72;72
80;84;80;76
64;64;64;76
68;68;78;72
68;87;79;63
44;64;64;84
92;87;48;64
92;95;95;95
84;80;80;84
92;111;87;64
64;76;94;95
101;92;102;102
92;92;111;111
87;64;84;100
100;108;108;96
88;106;103;100
102;111;100;84
80;100;111;95
68;68;88;100
106;111;102;96
104;111;95;68
100;111;70;80
100;111;79;68
96;111;95;64
76;88;92;94
111;79;64;80
84;94;84;80
84;80;76;95
95;52;68;76
68;68;72;72
68;64;68;86
82;64;52;44
48;68;82;87
84;95;95;94
76;68;78;76
80;92;95;92
92;95;103;107
102;102;94;92
92;109;111;79
68;92;111;111
111;72;72;88
76;76;111;95
64;68;94;111
95;95;111;111
111;84;68;72
88;110;111;92
80;64;64;64
92;95;64;56
72;86;92;92
92;92;95;103
80;68;76;80
76;80;95;87
56;64;80;95
95;95;56;64
64;72;76;92
84;72;64;52
48;52;40;52
76;79;46;48
68;92;95;87
72;92;95;95
80;86;86;86
94;92;80;64
52;52;68;94
92;95;95;109
108;111;111;103
111;88;72;64
64;64;64;52
68;68;68;80
76;93;88;84
80;95;95;95
84;72;64;64
80;95;48;48
72;95;95;95
95;64;64;72
84;95;71;52
64;64;80;95
95;79;87;95
109;92;84;80
84;103;103;109
111;111;103;79
68;76;88;108
108;92;84;88
96;111;95;74
64;92;84;94
109;109;111;111
100;76;80;84
84;76;80;84
76;95;80;64
64;52;48;64
64;64;64;64
92;84;76;88
95;95;95;92
72;64;64;84
95;84;64;69
79;92;64;79
80;64;87;95
111;95;95;103
109;111;104;80
72;88;119;95
72;64;80;100
108;111;111;111
119;119;96;80
80;88;84;84
84;84;72;64
76;95;95;95
95;102;80;80
92;111;95;103
111;92;84;100
119;95;76;64
92;95;64;64
68;84;109;111
103;95;68;64
80;92;100;109
111;95;64;84
111;85;64;68
76;103;95;64
72;76;76;88
108;103;108;109
111;96;80;68
68;68;80;92
103;71;52;64
68;80;95;95
95;111;111;111
111;111;108;119
111;72;100;125
119;96;76;84
111;119;111;111
111;92;80;110
118;127;109;111
127;108;84;111
112;108;124;127
127;127;103;84
108;127;127;111
119;127;112;96
80;76;88;100
100;100;111;79
80;96;111;119
111;110;92;80
80;72;80;108
95;64;64;88
108;95;68;64
84;100;88;84
100;95;93;111
96;72;64;64
76;95;66;64
84;103;95;87
95;111;95;79
72;102;111;111
95;103;111;119
122;116;88;76
80;111;96;76
84;106;111;102
92;92;96;102
104;111;111;87
76;68;84;104
110;96;84;88
111;68;72;96
111;111;111;111
111;123;119;95
80;92;104;111
108;100;88;96
111;95;64;80
108;79;64;76
92;108;84;80
84;76;64;76
92;88;95;92
88;95;95;111
111;119;111;103
111;119;118;108
116;118;122;124
116;122;118;116
124;127;127;127
127;127;101;88
96;118;127;119
88;80;84;104
111;119;124;100
80;80;92;110
118;110;96;92
96;108;92;76
64;80;80;80
88;94;84;72
64;64;60;48
68;84;86;84
80;86;94;88
88;103;95;79
64;64;80;95
102;95;111;100
80;84;96;92
88;80;64;64
72;80;76;80
80;94;76;64
48;48;68;95
71;54;48;64
95;95;69;48
80;79;52;64
84;95;95;95
106;107;88;84
84;92;80;76
88;109;111;79
64;111;111;95
64;80;96;103
96;106;111;111
111;95;76;76
84;100;111;111
111;110;96;92
104;111;95;93
68;84;88;111
111;111;76;68
88;119;111;119
119;116;96;80
96;119;111;119
104;80;72;72
88;108;102;92
92;108;96;80
80;80;72;68
68;92;95;52
68;84;72;68
52;72;76;87
92;82;68;76
94;95;71;48
84;79;79;79
52;76;92;103
103;68;68;64
64;84;95;95
93;94;95;111
111;87;68;80
102;111;95;87
68;88;109;111
111;95;109;111
95;72;96;119
110;100;96;104
111;96;88;84
111;111;119;111
104;111;72;88
96;119;111;76
76;104;111;111
111;68;72;84
102;111;100;92
80;84;96;100
88;84;76;84
103;95;103;92
80;96;102;100
80;80;84;100
110;111;111;108
96;111;111;100
80;68;71;64
96;111;64;64
84;109;108;105
100;104;100;108
111;79;72;92
100;111;111;108
84;88;76;80
111;64;64;76
102;95;64;64
64;68;72;76
68;64;64;72
80;94;76;52
60;77;95;94
95;95;102;111
103;111;102;80
68;64;64;64
80;84;86;76
68;72;95;95
87;95;79;64
64;64;84;95
95;84;88;103
109;111;79;87
95;93;78;85
68;64;84;100
110;87;72;94
92;88;80;76
80;76;84;92
95;95;70;64
80;95;95;103
100;102;94;102
104;111;111;111
111;118;116;119
127;76;84;88
100;111;111;96
80;84;92;102
84;80;92;111
95;111;111;119
111;127;126;116
96;88;80;84
96;111;111;96
72;72;80;103
80;64;64;72
76;88;76;76
64;68;64;64
82;76;64;64
90;87;95;87
79;76;64;52
72;95;95;95
95;64;80;111
95;103;111;108
80;68;72;84
84;111;95;64
64;76;94;100
80;92;100;100
80;72;76;94
88;94;92;86
84;80;92;103
103;111;108;100
80;68;68;72
84;84;84;86
84;95;71;52
64;68;76;72
68;64;44;40
68;84;87;95
95;52;64;84
95;95;95;102
94;100;110;108
111;95;64;68
88;110;100;72
76;103;80;68
78;64;64;84
92;100;100;92
68;64;64;76
103;52;68;103
79;64;84;84
72;80;84;92
94;76;68;64
64;95;69;48
64;80;95;95
95;103;98;108
108;92;72;64
64;84;95;71
64;76;88;95
95;111;111;100
84;80;68;84
92;103;111;100
84;88;84;76
88;71;68;64
76;84;92;95
84;92;88;111
79;64;84;103
103;88;80;76
72;72;68;76
95;95;60;64
68;95;95;103
103;94;72;64
71;64;64;86
92;92;76;64
76;95;95;95
92;100;108;92
80;92;103;100
92;111;111;95
68;88;111;111
106;108;119;108
88;84;76;64
68;96;111;95
95;68;100;111
111;110;100;110
119;119;110;88
96;111;111;119
110;108;104;96
92;111;111;117
119;124;126;127
127;127;127;111
88;108;124;122
127;103;86;84
88;122;111;91
80;96;100;84
72;64;84;103
111;111;111;119
119;95;81;72
72;84;92;102
96;84;76;76
84;111;95;71
64;80;92;109
108;111;76;68
88;88;84;80
84;111;95;95
95;64;72;92
102;111;95;76
64;80;84;84
102;111;87;71
68;92;103;94
80;106;111;87
68;76;96;106
94;84;84;94
108;111;70;64
92;111;79;64
84;84;84;88
109;111;111;111
111;119;119;126
127;126;108;96
84;96;119;125
119;127;112;100
104;104;125;119
116;112;118;127
127;127;127;127
127;127;124;126
108;96;84;84
104;119;104;80
72;64;84;92
96;111;111;111
103;85;68;88
111;95;95;111
104;96;88;92
80;88;92;88
72;109;95;64
80;111;103;111
111;68;84;92
92;111;111;111
108;88;92;96
80;84;88;84
80;94;111;79
68;64;64;80
92;109;78;60
64;84;72;80
103;95;87;95
76;64;80;100
108;100;103;108
110;100;96;84
84;108;108;109
92;102;96;92
102;104;84;72
72;94;92;92
103;103;76;64
95;80;71;79
95;111;95;95
111;116;108;88
80;68;68;80
92;103;102;102
111;103;68;68
88;111;95;78
72;96;111;111
119;119;119;111
84;76;68;72
88;88;100;111
111;110;100;84
84;111;111;111
110;119;118;96
84;111;117;116
111;88;72;72
96;111;64;88
111;64;68;88
109;87;64;64
84;96;103;84
76;100;88;80
72;64;64;64
76;95;95;79
52;84;95;52
80;102;111;111
111;95;87;76
84;95;68;92
102;111;111;111
111;76;80;100
110;96;76;64
76;111;95;95
111;119;119;119
124;127;127;127
119;88;112;127
127;127;120;124
127;127;127;127
127;127;124;108
96;88;84;80
72;88;111;111
87;68;68;76
96;111;110;108
102;80;68;76
64;64;76;94
100;92;95;92
88;103;111;111
111;100;80;68
64;80;102;102
94;84;94;100
109;108;102;96
96;92;88;103
100;111;108;100
92;111;111;93
95;111;119;119
108;88;72;68
80;108;111;72
64;84;111;111
111;87;68;72
92;100;88;84
88;88;94;111
95;64;64;84
106;64;64;84
103;95;79;71
74;95;103;111
111;111;119;127
124;127;127;124
108;96;84;88
100;119;111;119
104;110;111;80
72;92;108;119
119;126;119;119
111;127;127;124
116;125;127;127
127;119;127;127
127;127;143;135
118;108;88;96
104;92;72;79
70;64;80;108
111;95;95;111
111;119;127;119
84;108;119;111
103;80;96;104
114;119;76;88
118;127;111;80
112;127;111;110
95;127;124;118
100;96;96;100
119;127;92;80
119;127;127;119
103;80;96;119
118;118;104;96
104;127;111;111
95;80;76;76
88;117;119;111
110;114;127;125
108;116;127;122
108;108;116;116
96;88;84;92
108;104;100;80
68;64;80;100
100;103;109;111
108;111;111;119
119;127;92;80
96;100;116;116
119;119;108;100
104;127;127;127
116;88;80;80
88;108;119;119
125;125;112;108
100;88;80;84
96;100;103;100
88;84;98;111
111;111;111;95
78;72;80;84
84;72;76;94
111;95;111;87
64;80;102;111
111;102;92;116
111;119;118;96
72;80;92;108
111;95;68;80
119;68;80;88
80;94;109;111
92;80;84;92
92;84;64;56
52;68;76;80
92;95;95;77
64;64;92;95
87;66;64;72
92;95;56;64
80;76;64;68
95;95;95;88
80;76;68;64
72;95;79;52
48;64;88;95
95;95;92;80
72;64;68;84
92;95;79;79
64;52;64;68
68;68;64;64
64;56;52;56
68;64;79;79
63;60;40;48
64;64;72;78
76;95;46;64
76;84;84;68
52;44;64;68
52;48;56;64
72;87;47;48
72;95;79;79
52;52;64;80
84;80;88;95
95;95;87;79
64;64;80;92
94;95;111;103
92;100;96;80
72;76;76;64
68;95;95;87
52;64;76;76
72;88;92;94
84;103;95;79
79;79;64;64
88;110;95;68
76;110;95;71
64;80;103;111
108;106;102;88
96;98;100;92
96;111;111;111
94;72;84;100
111;111;79;64
108;111;64;80
104;111;95;95
68;84;110;110
84;70;95;111
111;119;78;88
104;119;111;103
72;88;110;116
102;96;80;72
80;68;64;64
84;95;79;64
72;84;92;88
84;95;100;100
72;64;64;64
72;76;76;92
95;95;111;95
95;93;111;96
76;88;102;111
95;87;111;88
80;111;111;95
103;95;76;72
100;100;84;72
100;111;87;64
68;88;103;88
84;88;76;84
111;64;64;68
100;95;79;64
64;84;111;76
68;111;87;64
84;108;111;111
102;84;100;111
111;85;72;64
84;111;95;95
95;68;68;80
111;111;111;85
72;88;119;111
108;80;72;80
96;111;95;72
72;111;111;111
119;119;108;100
100;108;119;117
100;104;127;95
86;72;96;119
119;119;119;96
80;72;92;100
111;100;84;68
68;96;92;92
84;68;64;64
52;64;64;92
95;48;64;72
72;94;86;76
64;64;64;92
88;76;68;80
92;87;64;48
48;64;72;87
90;84;88;92
95;84;80;109
95;64;64;72
84;72;68;72
92;72;64;48
48;64;76;68
48;46;63;79
95;84;68;64
68;95;87;79
54;52;52;72
86;95;71;52
64;76;76;76
68;76;84;78
68;64;68;78
80;86;72;68
64;84;94;95
95;95;111;111
108;80;72;76
72;72;76;76
88;95;92;103
95;70;68;68
64;76;111;95
79;76;64;72
80;103;111;111
111;95;68;72
92;111;108;104
108;111;119;111
76;80;92;92
96;88;80;84
80;64;52;48
64;80;95;54
64;86;95;95
103;76;64;52
64;76;76;76
68;84;95;79
52;72;95;94
95;80;64;52
64;72;94;87
52;64;95;63
52;64;68;95
95;71;52;92
95;70;68;87
111;110;111;110
104;108;102;96
108;110;96;96
88;88;111;111
79;68;64;72
94;106;106;110
110;111;111;119
119;118;116;104
100;92;84;84
96;111;111;111
111;76;72;72
68;84;92;100
109;104;96;72
72;106;95;95
95;64;76;76
84;94;111;111
111;79;68;92
110;111;110;79
80;104;111;119
119;119;116;116
108;116;125;127
119;87;103;103
80;124;95;76
104;119;114;92
88;108;119;95
76;68;80;88
102;111;111;111
103;68;80;92
80;88;92;94
102;111;110;111
111;78;80;100
111;95;68;72
100;111;95;64
92;110;110;92
88;100;111;111
108;96;84;92
110;111;79;68
111;111;104;84
84;92;111;79
72;92;108;111
103;103;111;111
84;80;92;111
111;96;88;100
92;76;76;76
72;64;72;94
103;95;71;64
80;111;71;64
84;103;100;100
86;80;94;103
100;80;72;80
109;56;64;64
76;95;92;95
88;72;64;64
68;76;95;95
63;48;64;84
95;86;76;80
80;88;76;68
64;68;88;86
84;84;84;76
95;95;95;100
111;95;64;80
111;108;102;84
92;95;78;68
64;80;92;103
111;111;111;111
95;72;84;111
111;111;100;96
100;102;108;111
111;72;68;68
84;88;103;103
109;111;95;111
119;119;127;126
116;108;108;108
100;96;96;88
88;96;111;93
68;84;100;111
95;68;68;84
111;110;111;119
119;111;95;95
84;78;79;64
88;111;103;93
95;95;111;100
84;72;87;111
111;84;68;76
87;87;79;94
95;95;86;68
92;108;119;95
68;100;111;111
111;119;111;90
94;95;111;123
108;119;127;127
127;104;84;80
84;84;76;84
84;84;72;64
64;76;80;92
95;92;86;80
88;95;95;64
88;100;96;108
100;96;92;84
80;94;95;84
68;56;52;64
84;92;95;92
68;64;64;72
80;92;80;64
48;64;76;84
68;64;64;64
76;93;95;87
79;48;68;86
86;86;86;72
80;92;88;84
84;92;95;68
60;64;76;95
77;64;68;84
111;56;64;92
111;71;70;79
79;64;64;64
68;101;109;111
95;103;93;95
111;68;80;108
111;111;119;119
110;104;96;84
84;88;96;102
95;76;64;68
110;111;95;79
68;72;80;88
76;76;76;92
94;92;84;76
84;88;103;103
108;100;110;111
111;96;76;64
88;92;92;84
84;76;84;103
103;102;111;111
92;68;73;79
76;64;68;80
80;76;84;92
95;95;100;84
72;68;76;86
95;92;92;109
103;111;108;80
64;76;88;80
84;76;68;64
64;64;68;64
64;64;68;86
80;64;68;72
94;95;95;95
103;64;64;96
103;111;111;111
88;76;72;68
68;84;103;95
95;111;100;72
64;72;84;84
80;80;95;95
95;64;64;76
80;76;64;64
76;76;64;56
64;64;64;68
72;68;64;64
76;64;64;72
95;87;95;95
95;103;88;72
64;79;95;95
103;111;111;119
127;111;111;111
103;111;127;116
124;124;96;92
119;108;100;104
100;84;79;79
80;119;111;68
80;84;92;84
92;100;111;95
68;64;84;111
95;64;68;80
84;72;64;64
68;95;48;64
76;78;76;78
92;95;92;95
111;103;110;110
108;111;119;111
78;76;102;110
119;68;96;119
95;68;80;96
111;111;111;96
84;92;111;95
93;87;103;110
88;72;64;80
100;102;111;93
64;88;108;111
111;108;84;76
68;72;64;64
64;68;76;95
95;65;56;54
52;52;84;95
95;95;103;111
111;111;119;119
119;88;76;72
84;106;111;111
119;119;119;110
100;127;127;127
127;112;92;80
96;126;95;72
88;84;80;80
96;92;108;95
64;76;84;95
111;64;64;80
84;72;64;72
92;95;95;64
56;64;72;80
84;80;72;64
64;64;68;86
95;54;64;95
95;64;64;76
92;95;95;94
86;76;64;64
64;80;95;95
95;95;103;106
111;68;64;92
111;64;84;110
95;64;92;100
94;68;64;80
103;111;111;92
72;68;70;64
72;80;109;79
64;88;111;68
68;100;111;111
103;68;80;100
111;111;118;117
119;125;126;116
118;111;111;103
80;100;126;126
108;96;108;116
116;110;108;100
88;84;84;92
84;92;111;102
88;80;80;103
111;78;76;102
103;108;108;110
110;119;111;111
111;95;76;80
96;92;88;88
100;111;95;72
68;102;111;110
96;84;100;111
111;64;80;100
111;103;76;78
64;80;108;108
100;84;88;92
100;71;64;84
95;64;95;64
64;64;72;92
95;94;92;84
72;84;68;64
68;92;95;79
70;52;64;92
79;48;80;84
88;84;80;64
64;72;68;68
76;95;87;62
52;92;95;79
64;64;72;76
72;76;93;95
95;103;100;104
111;108;111;111
110;100;100;104
96;102;111;111
100;84;88;92
88;94;96;111
87;64;80;92
103;100;111;95
87;64;84;111
111;95;95;86
68;80;92;96
88;111;95;71
68;88;100;96
108;95;95;111
111;111;116;118
127;86;76;80
96;88;84;88
80;80;111;79
64;92;103;108
96;108;95;95
111;111;108;92
100;100;88;84
88;84;68;64
72;109;79;56
64;64;64;64
64;84;94;95
79;52;64;64
80;72;64;84
95;61;52;72
80;92;92;84
68;64;72;80
94;95;95;87
95;64;76;92
100;94;94;80
68;64;72;88
84;68;95;95
79;64;70;71
68;75;87;79
68;64;64;84
103;103;94;84
84;84;80;76
68;64;76;86
95;95;90;84
80;76;80;76
64;52;64;64
68;95;95;95
95;79;78;68
64;64;68;68
88;95;95;95
103;95;76;79
70;64;80;96
111;109;100;88
80;80;92;88
84;84;88;86
84;76;72;72
68;90;95;95
87;64;80;94
72;68;94;95
95;64;76;102
111;87;64;80
92;80;76;92
92;84;108;95
77;64;68;80
100;95;79;64
88;76;86;92
95;103;109;100
96;88;96;111
111;87;79;68
64;64;80;109
111;95;93;64
92;111;111;111
119;74;80;88
102;111;111;70
84;111;111;119
119;72;84;116
125;119;118;104
88;84;80;80
108;95;72;64
84;100;103;100
92;88;92;111
111;64;80;106
111;111;87;68
76;88;100;111
95;64;100;111
111;100;88;84
88;100;111;79
72;96;108;111
95;64;88;108
111;95;70;64
96;95;72;64
84;72;68;76
94;77;52;64
76;76;76;84
84;95;95;79
64;64;64;80
80;95;95;88
80;76;64;52
64;80;88;95
71;79;56;64
76;84;95;95
109;95;95;111
86;80;111;119
85;68;80;88
84;80;108;95
111;111;111;119
119;103;95;84
80;92;104;111
111;111;125;110
96;80;84;100
119;111;111;111
92;80;108;127
111;109;92;72
88;92;80;88
100;110;100;92
100;111;111;111
108;84;88;100
111;103;95;87
80;104;104;92
96;119;111;111
100;76;68;68
64;72;102;108
100;108;111;87
68;72;80;96
96;100;111;95
111;95;87;68
84;100;111;104
108;102;84;68
68;88;111;95
87;64;72;72
72;92;108;111
111;87;68;72
111;95;79;64
72;84;72;76
86;109;95;103
103;95;87;111
111;84;72;84
84;111;95;70
68;100;100;100
88;100;102;102
100;84;108;95
87;76;64;72
76;76;92;107
95;64;72;100
111;111;95;87
78;68;96;111
111;95;72;68
72;72;80;96
108;111;111;108
88;72;95;103
111;119;116;116
127;119;95;76
84;92;92;92
108;108;88;72
88;95;73;64
96;87;64;76
92;111;103;110
111;95;79;79
68;84;102;111
111;111;88;68
64;68;76;88
94;86;76;72
95;79;52;64
84;95;103;103
103;111;111;111
119;119;127;119
111;76;110;127
127;76;84;80
80;84;110;111
92;68;88;100
108;111;111;110
100;119;111;119
95;80;80;96
100;116;110;100
88;88;92;100
102;111;111;116
104;84;92;111
111;111;111;116
100;84;84;84
80;72;76;76
84;103;95;95
87;64;68;76
76;92;88;84
76;103;95;95
68;68;103;95
79;64;68;88
109;111;111;111
111;111;92;78
95;79;64;68
88;111;87;64
84;111;70;64
80;100;110;111
108;92;76;64
68;72;92;95
96;103;111;64
64;80;102;111
110;100;84;84
100;111;95;95
103;111;96;76
87;64;72;68
64;64;68;84
92;95;95;80
64;68;92;95
95;79;52;72
92;103;95;92
68;64;56;48
64;76;64;64
92;44;64;76
84;95;76;76
80;95;95;92
68;64;72;76
88;95;79;79
64;64;76;80
84;95;95;88
72;64;70;87
87;71;60;64
64;64;64;72
95;95;87;95
106;106;94;84
80;76;76;76
92;103;95;95
95;79;71;64
92;111;111;111
111;110;104;111
116;119;116;116
126;111;95;80
80;92;104;100
96;96;96;111
111;111;111;119
100;108;124;111
72;96;102;96
96;111;91;68
72;88;111;95
86;68;64;72
88;109;110;111
108;102;92;84
84;92;92;100
103;111;93;64
92;111;111;95
76;72;80;84
103;111;79;64
88;111;111;100
88;92;108;111
95;68;68;72
80;88;108;79
64;72;92;84
76;80;84;72
64;52;68;92
93;95;95;72
64;68;68;68
64;48;44;64
68;84;79;64
64;64;68;68
64;56;52;64
68;64;48;48
64;79;87;87
87;94;76;76
80;95;84;92
95;92;76;94
95;111;79;77
64;64;64;72
80;95;92;80
80;76;90;95
95;103;111;111
111;111;100;84
76;68;72;76
106;95;111;111
111;87;64;88
108;87;68;64
84;100;100;96
96;102;92;92
92;80;88;100
100;106;96;84
80;72;72;76
64;48;72;95
79;64;68;92
94;84;72;72
84;95;94;88
86;95;66;64
80;94;103;95
95;95;64;72
104;111;111;111
111;119;118;108
96;80;72;84
88;88;96;111
111;68;64;68
96;103;80;72
96;56;68;76
76;76;95;87
71;52;64;76
95;95;95;88
64;56;56;56
48;72;92;95
95;79;52;68
80;95;64;52
68;72;68;80
94;95;87;95
111;111;111;111
95;119;116;108
92;76;68;68
84;111;79;76
76;70;72;76
64;68;92;106
111;64;64;96
111;87;64;72
111;95;95;111
88;72;80;92
100;111;102;92
88;111;79;68
64;76;94;111
111;111;100;84
92;84;64;64
72;103;95;95
95;64;72;94
111;110;96;80
88;111;111;74
72;119;111;87
72;80;92;94
94;80;80;84
86;100;111;111
111;110;96;80
80;80;88;86
92;76;72;76
103;52;64;72
95;95;52;64
80;95;95;78
79;95;111;111
96;118;111;95
68;92;96;110
119;111;96;80
88;96;103;96
80;84;80;86
88;64;64;80
80;88;76;76
76;68;64;52
64;68;64;76
94;84;64;48
48;44;64;76
95;60;48;44
48;52;55;44
64;95;95;95
95;70;64;72
84;103;103;111
111;111;111;119
119;104;84;80
80;68;64;71
64;72;100;92
84;84;80;84
80;76;80;80
72;72;76;92
95;95;92;84
84;84;95;103
95;95;95;79
76;64;68;88
108;87;71;64
80;92;103;103
111;68;72;92
111;111;111;111
111;108;88;80
88;111;79;64
80;110;108;104
106;119;111;95
78;84;96;100
104;111;119;119
119;127;127;127
127;88;88;104
100;110;108;100
88;72;72;80
80;94;92;111
111;64;68;84
96;88;88;88
94;111;95;111
111;119;119;127
124;110;96;80
68;72;84;111
93;64;76;94
106;103;72;79
103;94;80;72
80;76;80;92
103;87;71;64
92;111;79;64
68;88;106;103
111;111;95;70
72;80;92;88
84;84;84;94
103;95;109;100
100;111;70;68
100;111;95;111
116;96;76;72
64;72;76;84
103;92;84;76
68;64;64;64
84;95;95;80
76;95;103;79
64;80;100;103
111;111;111;111
95;72;80;88
100;95;64;64
76;92;94;94
84;94;80;76
68;64;64;64
84;95;79;48
80;95;95;103
92;94;107;111
111;95;64;96
111;103;79;68
72;88;111;111
111;103;79;68
80;92;84;84
76;88;88;100
111;64;68;64
64;52;52;64
76;80;80;72
64;52;46;44
44;64;87;87
87;95;95;94
92;94;84;76
72;92;95;95
84;80;86;95
94;102;100;84
88;106;95;87
64;64;64;72
84;84;95;95
95;87;64;72
84;86;95;102
108;95;76;93
111;92;68;64
64;76;84;84
68;64;64;68
68;72;80;88
86;76;68;72
76;95;95;95
95;95;80;72
84;95;95;94
80;64;56;60
56;60;71;63
52;80;95;87
52;64;72;80
76;76;64;52
52;76;79;84
87;84;93;95
95;64;64;64
84;92;76;64
64;64;64;68
68;95;44;52
72;88;95;95
95;68;64;64
64;68;76;86
72;72;68;68
80;72;64;52
72;87;95;95
95;79;64;64
84;103;95;79
64;72;80;111
103;84;72;68
64;64;68;64
68;78;92;92
94;95;92;92
94;76;64;64
88;95;103;86
64;68;80;88
86;88;88;88
80;80;84;92
92;95;71;56
68;95;92;76
64;68;84;88
86;78;72;72
86;95;95;84
72;56;64;68
92;71;48;64
72;95;71;48
68;95;79;68
56;68;84;84
88;95;56;64
84;94;84;92
92;92;80;92
111;95;68;64
68;79;76;68
64;94;111;87
64;64;64;56
56;52;52;52
86;95;63;48
68;68;95;63
68;79;52;64
84;80;68;64
76;92;95;95
95;95;87;95
111;108;92;76
80;84;100;111
95;111;95;95
95;72;76;111
102;108;116;119
103;72;96;111
111;76;72;96
119;64;88;108
102;111;119;119
111;102;108;100
80;84;84;92
111;111;92;80
76;72;80;76
76;92;95;68
64;84;92;95
95;88;84;88
100;95;77;76
71;78;64;64
64;88;95;111
95;79;64;64
80;94;109;111
76;64;80;110
111;103;68;64
64;72;84;80
92;94;100;84
72;76;84;95
103;109;111;111
111;104;88;76
92;111;103;111
95;68;84;108
111;111;96;88
84;76;64;68
84;95;52;80
102;77;56;64
76;95;95;95
109;87;64;76
92;111;111;111
111;100;84;72
72;111;111;111
111;64;88;96
104;111;64;84
106;104;88;88
84;94;102;108
100;100;108;109
111;95;85;64
96;108;111;111
68;76;96;104
100;102;100;92
84;96;92;100
92;80;64;64
64;94;95;84
72;80;84;76
76;103;79;60
52;80;95;95
95;79;64;76
95;71;64;76
88;103;95;102
111;76;64;84
80;92;102;95
84;72;72;76
72;95;95;79
52;64;64;68
90;92;80;64
76;84;88;92
92;95;95;103
95;103;68;64
88;110;111;111
96;76;68;84
92;110;111;95
64;84;108;110
96;92;111;111
111;92;72;64
68;84;95;108
100;96;92;84
76;80;88;92
94;92;84;72
64;64;72;76
84;95;95;95
79;64;64;68
88;95;84;80
76;103;103;87
68;64;72;95
103;103;111;87
95;103;111;111
111;118;92;80
72;80;84;84
111;100;80;68
80;111;95;68
68;106;111;110
104;84;68;71
64;72;72;76
100;95;95;79
74;64;64;80
94;72;64;64
76;95;111;95
95;95;64;72
84;100;111;87
64;92;102;108
111;111;111;79
72;110;111;72
72;100;111;102
92;84;72;68
92;95;79;64
68;107;95;79
68;64;64;56
80;103;103;103
111;95;70;64
80;111;95;87
103;96;92;96
108;102;100;96
111;111;78;64
88;111;111;106
80;72;64;64
94;92;95;100
108;100;102;111
119;68;72;72
92;111;95;76
64;80;84;88
80;72;86;103
109;79;64;64
88;94;94;103
111;79;64;68
92;111;95;68
64;80;102;111
111;95;64;84
108;111;64;80
92;93;68;64
84;84;80;80
92;109;111;95
70;64;76;84
84;109;109;111
110;108;88;72
68;92;98;86
72;88;102;111
103;111;111;92
68;72;88;108
95;72;64;68
110;111;79;64
68;80;100;111
111;111;96;88
100;111;87;72
88;111;111;95
111;96;92;92
102;84;100;92
88;101;86;92
102;88;88;88
84;92;92;80
95;76;92;93
78;92;78;80
92;84;76;88
84;84;86;84
84;80;76;84
78;84;84;76
76;84;78;76
76;92;68;92
64;79;95;95
95;64;80;110
111;111;111;68
80;80;84;92
108;100;80;64
64;68;64;64
68;72;76;72
92;95;87;95
95;94;84;80
84;84;72;64
68;68;64;68
95;79;67;48
76;76;68;92
95;79;63;52
68;88;95;95
95;95;86;102
108;111;95;64
80;111;95;95
93;64;84;96
104;95;64;76
88;111;76;64
64;76;88;103
84;102;107;105
102;111;96;80
76;68;76;95
76;68;76;94
103;95;66;64
100;64;76;102
108;103;88;72
72;76;84;72
76;80;95;95
86;103;66;64
84;95;94;76
64;52;64;80
95;79;68;60
52;72;92;84
94;69;52;68
86;95;79;79
64;94;95;103
96;84;72;88
106;95;64;68
88;88;84;80
72;68;68;68
68;68;68;68
86;93;95;95
68;56;52;64
64;95;63;54
48;48;48;64
76;64;95;95
79;95;102;95
84;72;64;68
88;95;79;52
68;95;95;79
56;64;72;76
76;80;78;68
64;68;84;80
68;52;44;40
52;68;87;87
87;44;64;80
95;87;95;87
95;103;88;76
64;68;72;76
76;68;64;64
72;93;92;76
52;48;52;76
84;87;90;76
68;64;64;68
76;93;95;95
71;52;64;52
64;68;84;95
79;52;52;76
95;95;95;95
92;95;76;72
88;103;95;87
68;72;92;100
92;88;92;103
111;68;64;100
111;111;111;111
119;93;84;96
102;119;111;84
80;96;118;119
125;127;95;80
96;108;119;125
127;127;127;103
80;96;96;100
119;119;116;96
80;76;92;96
88;110;119;111
111;92;80;64
88;95;64;68
92;109;111;111
111;104;88;80
76;72;72;80
76;80;72;68
92;87;48;68
88;95;86;95
103;95;87;95
103;96;84;96
111;95;95;85
64;76;76;94
108;111;111;95
68;84;111;111
111;79;68;76
96;111;95;86
72;102;111;103
103;108;80;111
108;92;80;80
88;106;88;80
84;111;64;72
111;87;64;72
108;95;87;71
64;92;111;111
111;95;64;84
102;111;111;111
79;80;100;111
100;111;111;103
95;72;68;80
96;111;72;64
92;111;64;64
64;84;111;100
88;92;109;109
111;100;92;84
76;68;64;64
76;95;94;84
80;86;76;64
64;84;95;95
95;103;102;92
84;92;109;111
111;86;64;76
84;103;106;96
100;111;104;88
76;84;100;108
110;111;111;100
100;117;102;84
84;84;76;72
76;86;95;109
95;64;94;111
95;100;76;64
64;64;76;84
94;95;70;64
80;76;64;54
48;80;95;69
52;64;92;95
84;76;80;76
64;64;64;76
95;95;95;92
76;64;60;79
86;72;72;76
72;80;68;64
76;95;95;95
95;70;64;80
88;80;94;86
72;68;68;84
86;95;79;56
64;86;95;95
79;87;79;64
64;84;102;102
98;109;111;111
95;76;68;88
100;111;111;111
126;86;80;96
108;111;88;72
64;72;76;80
76;76;84;80
84;94;92;84
103;103;92;88
109;108;111;111
108;108;100;88
96;96;104;102
108;88;68;64
76;95;103;111
111;110;96;84
84;68;64;68
103;95;95;95
71;64;72;80
102;95;92;96
98;109;103;80
64;72;84;100
92;94;103;92
80;64;64;64
76;88;84;72
56;48;64;94
95;95;95;84
68;72;84;95
79;52;64;95
95;88;68;64
68;84;95;94
92;72;64;52
68;84;68;64
64;86;95;87
95;95;103;88
68;76;76;92
111;79;56;64
68;84;94;103
109;102;111;108
80;64;64;72
95;103;109;111
111;96;84;84
102;100;88;80
80;108;95;95
93;76;84;100
84;92;84;80
108;100;80;76
84;108;95;79
64;68;76;72
92;79;52;68
103;52;64;76
72;64;52;76
95;71;48;68
84;90;84;95
88;80;95;84
64;64;88;95
95;79;64;52
64;80;84;92
95;92;92;109
111;87;77;69
64;72;84;103
106;111;106;92
72;80;108;111
111;95;87;70
72;84;111;95
87;92;111;119
95;92;114;118
104;88;96;110
118;119;125;116
88;96;118;127
124;104;100;100
104;119;111;95
95;72;96;119
119;116;108;119
116;127;122;108
100;88;84;76
72;72;80;84
92;92;76;84
88;76;76;72
76;86;88;86
76;64;48;48
72;92;94;88
72;64;68;94
94;84;76;84
95;95;95;94
80;80;95;100
106;95;64;64
76;108;79;64
64;68;86;95
92;76;68;76
68;76;86;88
84;64;48;48
64;68;72;95
79;95;95;95
80;76;76;72
88;92;95;79
56;64;72;84
95;87;60;64
76;94;95;95
95;71;64;64
84;103;111;68
72;92;92;100
88;72;76;64
64;76;72;72
92;79;56;64
95;95;87;76
64;96;71;68
88;76;76;95
103;93;77;64
64;84;109;111
111;111;111;119
111;111;124;116
126;127;126;124
127;127;127;127
108;100;108;100
92;96;119;111
111;80;100;119
119;116;96;80
80;76;84;96
108;88;68;64
76;92;94;94
98;108;109;110
96;96;108;92
68;95;100;76
64;64;76;84
84;76;68;95
95;71;60;52
72;92;95;88
92;68;56;54
48;64;68;76
95;61;48;52
80;84;76;64
48;48;84;94
94;80;68;64
64;64;64;72
95;95;46;64
80;84;80;76
92;84;68;68
84;95;63;52
52;72;93;95
95;95;88;76
76;80;84;72
76;76;92;95
95;76;64;68
92;79;48;76
95;95;95;95
79;64;80;94
106;111;106;84
68;76;84;95
102;102;110;111
111;110;118;118
127;126;127;127
127;80;96;96
96;124;111;72
96;110;119;108
96;100;96;100
104;104;106;108
104;102;110;111
119;72;80;92
111;111;111;104
100;84;84;88
84;72;80;100
95;64;64;76
88;84;84;92
103;95;79;64
80;92;84;72
64;68;64;76
68;68;64;72
95;63;54;64
84;72;68;72
84;78;64;48
64;78;72;64
64;64;84;92
93;84;72;64
52;64;72;87
95;55;48;68
68;92;95;95
95;88;76;94
111;87;74;64
64;80;108;106
102;88;84;108
111;111;102;84
92;96;111;106
96;80;80;84
102;78;64;80
84;84;84;80
92;94;88;102
103;103;103;108
111;87;70;64
80;92;102;111
111;64;68;76
88;103;95;103
111;111;111;110
84;84;84;92
92;96;111;95
64;96;111;95
87;64;72;80
88;111;79;79
95;79;68;68
92;92;84;76
80;86;95;92
76;68;80;95
95;103;109;110
96;84;84;84
92;100;111;95
87;95;85;68
80;88;84;80
80;84;72;64
80;95;56;64
68;72;95;79
60;64;63;56
48;72;94;95
103;71;52;76
86;76;84;92
102;79;66;64
95;95;95;72
64;64;76;60
64;72;95;95
79;64;92;110
111;79;64;64
108;71;64;64
72;84;84;76
68;72;68;68
76;84;78;78
94;95;79;52
68;80;92;95
103;102;80;64
64;84;95;80
64;56;93;95
84;80;84;95
103;95;64;64
64;76;100;95
87;64;68;88
95;102;111;79
64;64;72;84
102;92;88;84
88;92;103;111
103;86;64;72
96;111;95;91
70;68;72;76
80;80;64;52
64;84;94;92
95;95;95;95
79;64;84;103
106;111;111;111
96;72;68;72
88;110;111;79
64;76;92;92
84;109;95;95
64;76;88;94
102;111;111;103
76;72;88;100
92;102;111;111
111;84;80;84
92;102;111;79
64;76;88;92
109;95;103;111
88;64;64;72
92;111;95;95
95;111;88;68
64;64;92;111
95;111;92;76
84;104;108;111
111;103;74;80
119;87;68;88
108;108;111;111
93;68;80;100
108;96;100;108
119;103;103;95
87;72;76;100
108;104;104;110
118;118;116;108
96;100;110;104
100;88;88;96
102;103;95;111
116;96;80;84
111;111;68;80
102;102;104;104
108;111;111;111
111;111;84;68
96;108;100;100
119;111;111;82
76;84;96;96
110;111;109;111
119;119;118;108
110;96;96;119
95;72;100;111
100;100;88;84
92;94;100;104
111;68;72;109
111;95;78;64
88;108;111;111
119;95;78;68
88;100;96;92
96;111;111;111
111;100;92;84
72;72;84;80
76;68;92;95
64;76;111;71
64;68;68;68
72;95;79;48
72;90;80;64
64;68;86;95
79;48;64;80
84;84;88;80
86;72;64;64
84;76;64;48
48;64;72;79
79;79;95;95
84;76;68;68
52;52;64;89
95;44;64;64
72;95;55;48
64;76;88;95
63;48;64;68
76;90;95;95
94;76;84;109
56;72;103;103
95;87;108;80
70;68;64;80
100;103;92;68
72;84;103;95
74;64;84;103
111;95;64;68
80;107;111;95
87;79;86;68
76;76;76;80
84;76;72;76
95;95;95;95
95;77;64;64
100;95;95;95
111;111;114;119
119;76;72;80
88;96;100;111
95;64;84;92
102;84;64;64
72;95;95;68
64;92;103;95
84;84;92;80
80;68;52;48
72;92;94;86
95;92;84;68
64;64;68;92
79;77;71;52
72;103;79;52
76;76;80;95
95;52;64;84
103;79;60;69
52;64;64;95
94;68;64;64
84;95;94;80
64;68;76;86
80;84;68;64
52;68;95;95
70;64;68;68
64;52;52;72
87;95;87;79
52;68;94;95
79;52;64;68
80;72;64;68
64;64;68;76
68;78;95;87
79;52;64;72
76;84;80;76
76;93;87;52
64;80;78;64
52;64;95;63
48;64;72;64
68;86;95;95
88;64;64;72
76;76;84;95
94;88;72;68
95;79;52;64
88;86;76;84
92;95;95;95
84;76;76;76
76;64;68;64
78;84;92;92
95;95;95;109
88;68;68;64
64;64;88;88
84;72;64;64
72;95;86;84
68;52;44;44
68;63;40;64
89;92;86;95
94;95;87;56
72;80;100;111
95;64;64;72
92;111;95;109
88;102;111;111
111;87;64;72
80;100;102;100
92;80;76;94
95;79;68;64
84;88;80;88
76;64;56;71
56;64;68;64
80;95;95;95
71;56;72;88
95;95;79;68
64;72;92;103
111;64;72;84
111;95;79;64
64;72;80;98
102;80;64;56
52;64;84;94
95;52;68;72
84;103;60;52
52;68;95;77
48;64;95;87
71;52;76;86
84;92;103;103
71;64;88;102
88;86;80;76
64;64;72;95
79;71;71;52
64;76;94;95
103;111;95;109
100;92;84;88
96;102;111;95
95;64;88;100
102;100;84;80
92;95;94;84
76;92;84;76
68;64;64;64
72;95;79;60
64;88;95;95
95;79;64;64
84;92;103;108
108;109;96;92
84;92;96;92
100;111;111;103
95;68;80;108
111;119;127;111
72;96;127;103
72;84;110;127
95;80;104;118
119;87;76;88
96;102;108;119
95;76;72;92
96;92;80;76
84;76;80;88
88;95;71;52
72;80;95;95
103;109;111;95
95;95;111;111
96;84;72;72
100;111;102;100
100;80;64;76
88;100;95;94
94;80;76;80
94;79;52;68
100;95;87;52
84;95;87;79
64;92;100;98
103;111;95;64
76;80;80;84
92;103;111;95
95;68;64;68
72;84;100;94
88;68;68;72
80;90;86;76
64;80;95;95
95;102;103;108
111;102;92;92
100;95;95;95
79;64;80;84
92;111;95;64
80;108;95;64
68;76;102;95
111;79;64;76
100;88;72;76
88;76;64;48
64;68;64;48
52;40;40;48
64;87;92;95
71;52;76;84
76;76;68;68
72;52;48;48
76;87;84;68
52;40;64;76
95;63;48;76
95;71;48;72
76;95;95;95
95;71;64;72
94;71;64;68
80;68;52;52
76;95;79;79
79;64;95;95
95;93;95;111
111;111;108;84
80;92;92;84
100;94;76;64
64;84;103;103
111;79;64;64
84;87;64;80
92;84;72;64
76;95;95;103
107;95;64;72
94;102;111;87
64;80;108;108
100;102;100;104
111;95;64;84
96;111;95;68
80;106;111;111
119;95;72;68
92;118;111;111
95;79;95;95
78;80;108;111
108;111;104;100
110;110;84;68
64;76;104;95
68;64;68;68
76;102;111;111
95;76;64;80
96;108;111;111
92;76;76;84
92;95;95;95
95;73;68;92
102;111;104;92
80;64;79;95
111;95;68;68
80;111;111;111
111;111;84;72
88;110;111;111
119;103;95;84
80;72;72;84
88;111;87;68
80;108;111;79
68;84;111;111
111;111;119;119
108;104;104;96
92;80;80;72
76;76;84;88
80;80;92;95
52;64;84;95
95;64;64;64
84;103;87;70
70;87;87;95
68;64;80;92
92;76;64;68
88;79;48;68
84;79;54;52
80;95;95;95
71;64;95;103
111;64;72;92
96;106;111;111
96;72;64;64
76;72;72;76
80;95;92;72
80;76;64;76
72;95;79;48
68;92;92;84
76;84;84;95
92;80;64;48
52;68;95;79
63;48;64;86
94;95;103;95
70;64;72;92
103;94;76;80
95;80;72;72
88;95;103;95
84;94;92;84
80;84;102;103
88;80;64;56
60;79;95;84
84;86;84;88
100;95;95;64
64;76;86;103
103;84;64;68
60;64;84;92
80;84;84;86
92;84;84;92
72;64;64;68
76;92;95;95
92;86;76;76
68;56;52;68
78;95;95;92
80;64;66;84
64;84;68;72
79;68;87;68
72;74;76;79
72;64;64;64
64;95;87;68
70;48;76;95
95;52;68;86
95;95;95;109
100;84;84;84
111;71;64;72
94;103;90;84
84;84;80;76
68;76;76;68
80;94;95;95
67;64;111;69
64;80;103;95
79;64;80;94
103;111;95;95
79;68;72;80
96;96;84;80
96;103;111;95
95;64;80;111
95;64;72;84
94;92;86;100
111;111;103;110
88;72;80;92
109;87;64;64
68;94;111;111
111;111;118;116
108;110;119;111
100;119;119;127
111;80;100;112
118;127;103;95
92;111;127;120
100;120;127;127
127;80;100;112
127;127;110;100
104;125;111;127
124;110;100;100
124;127;119;76
104;127;103;80
96;96;100;100
96;111;118;119
119;111;78;88
119;119;111;80
84;100;108;119
119;68;108;116
116;111;72;84
104;116;119;116
110;100;88;118
119;119;119;122
104;100;100;96
110;119;127;124
112;100;96;96
96;88;84;80
72;64;64;71
95;72;64;56
64;64;84;84
84;95;95;95
95;79;64;80
103;111;111;110
110;119;87;68
92;119;108;84
68;79;71;64
102;111;111;111
111;78;72;68
76;96;111;87
64;64;64;72
101;79;64;64
76;76;56;48
64;95;86;72
64;72;76;84
95;95;88;72
72;76;72;64
64;92;95;95
95;95;87;64
64;80;84;92
100;111;95;71
64;94;111;95
85;64;68;84
88;111;87;79
86;79;64;80
111;64;80;110
111;95;76;68
88;92;88;88
111;95;64;68
94;95;79;64
84;111;87;64
80;111;95;76
64;72;92;100
102;94;80;92
92;111;66;76
108;111;111;111
108;104;84;68
84;111;87;76
64;64;80;95
100;100;108;92
64;56;64;64
88;79;52;64
95;71;52;76
95;95;94;88
84;95;95;88
96;103;111;111
111;95;72;72
88;111;111;110
108;100;96;88
80;111;111;111
87;72;88;100
96;102;84;72
88;111;74;64
72;106;103;108
111;64;84;111
79;70;64;76
76;76;80;80
72;80;95;95
95;107;95;72
64;64;72;80
95;71;52;72
95;95;92;68
52;64;68;72
88;55;64;72
76;72;92;92
80;95;68;48
72;92;95;95
103;111;108;111
111;95;84;64
88;111;87;70
68;76;72;68
72;92;103;95
95;87;95;79
64;76;110;95
64;72;88;103
102;72;64;64
56;64;72;86
95;95;79;87
79;64;64;72
80;94;95;103
101;94;94;110
111;95;111;108
88;80;84;92
92;111;111;111
111;103;72;80
96;119;111;110
116;119;108;118
127;127;118;100
96;126;124;108
96;100;119;127
124;127;127;127
127;127;127;101
88;112;116;108
127;92;80;96
110;124;127;127
111;127;111;127
127;116;112;127
127;119;111;111
88;88;88;104
124;127;110;112
108;127;127;119
111;84;100;116
127;127;111;111
92;94;92;103
111;95;80;80
96;108;119;119
127;95;76;84
110;79;80;88
111;111;95;64
96;111;108;100
118;79;64;80
104;79;64;72
88;84;76;72
64;88;95;94
103;95;87;87
64;68;76;76
76;100;103;111
111;95;95;111
111;68;92;108
124;87;76;70
68;64;80;92
88;111;95;111
111;119;119;111
86;72;104;119
126;103;76;72
88;102;92;88
104;111;79;68
111;111;111;111
119;111;79;84
119;95;68;84
104;95;64;80
102;95;72;64
64;84;100;106
100;111;111;111
119;95;72;84
102;119;116;117
119;79;80;88
118;103;111;119
124;127;127;127
127;111;95;80
96;100;100;118
111;92;76;76
96;119;79;72
104;95;103;87
72;68;68;68
64;64;64;80
84;102;109;111
111;104;100;104
92;80;68;64
68;100;94;76
72;95;103;111
95;68;64;68
100;111;87;64
84;110;103;84
72;76;86;80
72;95;103;95
71;64;72;86
88;92;84;80
80;84;84;80
76;88;95;77
60;52;64;88
88;95;94;86
84;95;52;64
84;103;77;64
64;64;80;95
95;100;84;84
94;111;111;87
64;84;111;95
64;80;100;111
95;93;76;64
96;95;68;64
76;88;100;100
84;98;109;108
100;100;92;80
96;95;64;88
106;111;111;111
104;119;118;111
96;72;68;64
88;111;111;111
119;111;109;119
108;100;80;72
68;64;88;109
106;96;92;96
94;92;84;64
64;64;72;72
64;68;84;95
95;68;48;76
92;86;76;72
84;95;63;52
64;95;95;52
52;64;64;64
76;94;94;92
84;95;62;52
72;94;92;86
86;95;108;95
95;68;64;80
96;111;111;111
96;100;80;64
64;76;106;103
111;111;111;119
119;108;100;96
96;88;80;88
96;111;79;64
80;111;111;111
111;111;111;127
119;95;80;88
124;92;76;92
108;119;111;96
84;80;80;68
72;111;87;79
64;64;84;102
111;111;108;108
110;111;95;68
84;111;64;76
92;111;111;79
68;100;106;100
104;95;78;68
88;111;104;108
92;94;92;84
80;88;84;84
92;94;103;111
100;72;64;64
64;68;56;64
94;95;94;100
111;87;87;68
64;68;80;84
92;86;68;64
72;80;68;64
64;76;76;68
56;56;64;64
72;78;64;64
76;95;79;87
95;48;64;84
90;95;80;64
68;80;80;95
79;52;52;64
86;95;95;95
93;95;95;95
79;68;76;88
94;84;88;95
88;94;94;94
80;68;72;80
92;95;95;103
95;68;68;88
109;111;110;96
100;119;111;111
92;96;111;110
84;80;92;102
119;64;76;100
111;95;111;111
111;88;76;86
111;111;103;111
119;111;127;110
100;108;116;124
127;111;95;92
84;88;96;102
119;95;68;96
102;119;119;119
108;108;108;104
127;119;111;84
80;80;84;92
88;108;108;100
84;92;88;84
100;95;71;71
64;64;72;84
100;109;79;64
64;76;88;103
103;111;111;111
110;119;111;124
127;119;125;127
116;116;116;126
126;120;96;80
84;96;116;126
111;72;96;119
111;111;127;112
96;88;96;96
92;96;88;80
88;95;64;64
72;92;92;80
72;72;76;80
95;95;79;56
76;110;103;103
95;110;84;68
64;80;80;76
94;95;71;64
72;109;64;64
94;70;64;64
80;103;95;95
103;111;95;87
68;80;111;95
95;111;119;116
104;100;100;88
76;92;88;92
102;100;80;64
68;103;95;95
76;68;80;68
76;92;94;76
72;88;92;92
94;103;103;100
92;80;80;88
108;95;64;68
100;100;80;84
92;108;102;80
64;64;76;95
95;56;64;80
88;103;95;71
64;72;100;100
107;103;84;68
88;71;64;64
80;95;94;68
64;56;60;60
48;72;84;80
64;68;88;95
95;79;95;108
108;111;92;72
68;68;103;110
111;95;68;64
80;111;111;95
68;80;96;100
96;88;68;68
76;86;95;95
84;88;88;95
80;92;92;84
76;92;103;95
56;72;103;95
93;64;68;72
84;111;79;64
84;100;94;92
92;111;111;95
68;72;84;100
111;111;111;111
108;100;96;100
100;118;111;72
80;100;111;119
111;104;104;88
80;80;88;84
92;95;95;92
68;64;64;84
100;94;84;86
84;103;95;76
64;52;64;64
68;72;76;64
64;78;70;64
72;72;64;64
76;87;84;72
64;68;93;95
95;95;103;111
111;110;96;84
80;84;92;92
111;103;79;64
76;111;95;68
64;88;102;111
111;111;110;102
100;92;88;108
110;111;111;95
68;84;92;100
96;108;111;111
72;92;111;119
108;88;72;76
88;84;80;68
64;68;87;79
87;95;79;64
72;100;111;95
95;79;64;64
68;88;106;108
108;84;80;76
76;80;100;86
64;80;88;88
86;92;94;95
88;92;80;64
52;52;64;72
92;94;95;95
95;111;95;103
91;76;72;88
106;111;111;96
96;88;72;72
95;88;68;64
76;76;68;68
72;95;79;52
76;88;76;64
72;95;95;60
52;72;95;95
103;103;92;84
80;72;76;80
72;72;64;48
52;64;68;64
52;56;56;56
48;48;48;68
79;87;79;63
44;76;80;92
95;95;94;76
64;52;64;68
80;79;44;64
80;95;95;95
95;84;70;94
64;68;79;71
52;72;80;86
88;84;84;76
86;95;70;52
64;72;76;76
80;92;95;95
92;72;64;64
68;95;79;71
70;68;88;95
92;88;95;103
96;102;111;103
64;64;64;76
88;92;76;64
76;86;94;95
95;52;68;72
80;86;92;76
64;64;68;80
95;95;95;84
64;56;63;63
71;71;95;95
72;64;72;103
87;95;92;68
71;79;95;107
106;104;96;88
84;103;111;95
111;96;84;88
92;100;102;110
111;111;111;111
108;80;72;64
84;111;111;111
88;80;68;64
64;84;95;111
111;109;111;111
95;119;92;102
96;103;96;76
103;119;125;127
119;103;80;96
127;119;76;84
92;104;119;119
118;108;88;76
84;88;119;104
80;72;80;100
108;111;111;111
116;92;72;68
76;84;92;109
108;102;84;68
64;80;86;76
68;76;92;95
95;79;56;64
86;95;103;103
84;80;92;92
88;111;109;95
64;88;96;88
96;108;96;80
80;88;84;80
84;103;69;64
76;92;102;108
111;111;111;108
96;92;92;84
72;72;76;95
110;68;68;95
94;103;96;92
96;100;96;103
92;94;92;84
76;72;72;64
68;95;95;80
64;64;54;52
72;92;95;95
103;52;86;94
111;95;111;84
68;72;80;76
76;94;103;109
108;92;88;80
84;111;111;111
95;70;68;84
108;111;100;80
72;68;72;68
72;76;84;88
76;80;84;88
68;72;76;86
84;84;72;64
64;84;95;79
60;64;76;80
64;68;86;95
95;87;95;92
84;111;111;111
108;92;68;95
111;108;96;88
92;92;103;92
84;84;94;103
88;80;80;102
95;95;110;110
110;111;111;119
126;119;119;111
86;100;127;95
80;96;127;95
72;108;111;68
100;110;118;110
88;72;64;72
96;111;111;76
80;104;111;95
84;103;93;72
76;100;111;104
92;102;111;117
108;96;72;64
80;110;110;110
110;111;111;125
119;122;96;80
84;88;96;96
100;119;79;68
92;111;111;88
72;92;110;103
111;111;111;111
103;119;96;76
84;96;119;119
111;119;119;111
95;80;96;100
102;119;111;78
80;100;119;119
108;96;100;108
100;80;68;64
72;111;95;93
64;80;92;111
103;104;96;102
111;111;74;68
84;100;98;100
108;95;68;64
80;100;111;111
95;64;80;100
110;111;111;111
92;88;88;96
108;88;68;64
92;108;109;100
84;76;84;110
111;111;111;119
119;127;119;127
124;124;127;122
104;120;127;127
124;104;88;80
100;125;119;108
104;108;108;110
104;108;119;127
127;127;127;124
116;124;116;116
124;127;127;127
120;126;127;127
132;127;127;111
108;119;127;127
127;119;111;111
105;88;104;127
127;95;80;96
127;127;126;124
112;110;108;108
119;100;80;103
100;84;76;88
84;92;76;76
92;109;111;111
111;111;111;110
96;92;119;119
96;88;88;88
108;111;118;111
100;92;100;110
119;72;72;96
100;111;111;100
92;80;68;72
88;111;87;64
64;108;79;64
88;95;84;100
100;111;111;111
111;96;80;80
88;102;111;95
95;95;68;80
96;96;88;76
84;95;84;88
95;111;68;64
72;92;88;84
72;72;64;64
76;84;64;64
76;95;71;48
64;95;95;95
68;72;94;103
109;111;111;111
111;111;95;72
88;104;110;102
123;68;80;84
102;111;111;95
95;111;116;102
96;96;119;118
108;100;88;72
80;100;108;111
111;110;104;96
111;111;92;72
80;111;79;64
68;68;64;64
68;68;76;84
84;68;52;63
94;68;79;64
71;87;87;79
56;72;103;79
64;52;64;76
102;95;52;68
101;95;56;64
84;95;52;68
92;103;103;102
84;84;80;68
64;76;88;95
95;79;64;56
52;64;76;95
71;64;86;84
76;76;64;64
64;72;95;54
48;72;95;79
79;64;48;64
76;95;95;79
79;60;60;52
76;95;103;95
103;84;64;87
109;84;80;84
98;103;92;68
72;92;86;84
68;72;92;95
79;95;103;88
80;80;76;80
72;80;80;84
84;95;79;52
64;84;103;95
103;110;111;79
68;64;64;80
88;96;107;111
108;80;64;64
72;109;70;64
84;103;111;95
68;68;84;111
95;100;72;103
84;68;64;64
80;84;80;84
84;94;95;92
95;111;71;64
80;88;100;111
111;100;88;80
72;72;80;80
80;84;76;72
64;64;84;95
95;88;86;92
84;76;72;64
64;68;78;84
92;80;76;76
94;95;84;68
68;64;68;78
95;71;48;64
92;95;95;95
103;94;68;79
103;111;111;111
111;87;72;80
88;111;119;119
111;95;78;84
109;119;80;80
96;111;119;119
118;127;127;122
116;126;127;127
119;92;84;104
96;84;72;92
108;95;64;80
84;80;80;84
102;79;52;76
84;108;95;108
100;104;111;79
68;68;88;111
111;71;72;88
111;64;64;68
76;80;72;95
95;95;95;95
111;111;119;119
108;88;88;96
111;111;95;68
88;111;79;68
80;92;111;69
68;94;111;111
119;111;118;96
80;80;80;84
102;111;111;119
111;96;88;92
88;92;96;100
111;64;72;88
106;106;100;88
92;84;68;64
76;92;95;103
98;76;76;84
92;95;56;64
72;92;88;72
80;80;76;64
52;48;64;64
68;48;64;78
84;68;64;64
68;76;76;84
80;64;72;86
95;44;64;64
68;72;64;48
48;48;48;52
64;76;87;63
44;48;79;93
95;95;95;103
96;102;111;110
96;80;72;76
100;109;111;64
92;84;80;80
95;95;70;64
68;80;80;94
95;95;101;111
108;96;92;84
84;84;95;111
111;111;95;64
108;79;68;80
88;94;88;80
84;109;95;87
64;64;80;84
84;92;111;103
101;80;76;72
72;80;80;84
94;86;68;56
95;72;56;68
71;52;64;80
88;95;95;95
92;92;86;72
72;109;71;52
80;92;84;88
103;68;56;52
72;76;95;79
79;52;92;111
95;110;92;76
72;92;111;95
87;76;64;68
92;95;64;76
92;108;111;95
78;64;72;102
88;72;64;72
80;103;95;79
71;64;108;87
69;68;84;102
80;76;64;64
80;95;79;79
79;95;92;88
108;111;70;64
84;108;111;94
92;96;94;80
68;72;72;68
84;95;95;87
64;64;86;102
100;94;102;92
100;80;80;80
84;102;109;111
95;95;111;108
84;72;95;108
80;68;68;76
88;95;95;71
64;76;80;84
92;95;87;87
74;64;64;72
94;95;95;79
64;68;88;88
84;84;80;80
80;64;64;52
90;95;63;48
64;95;79;71
52;76;95;95
95;80;76;80
88;88;103;95
95;64;64;76
88;103;95;79
64;76;72;72
64;52;64;88
95;68;52;63
48;48;72;95
95;71;48;64
72;95;79;56
64;64;52;48
52;52;64;78
95;48;48;88
95;63;48;64
76;76;80;78
76;94;95;92
100;79;64;84
111;56;68;103
103;109;111;96
80;76;68;80
111;95;95;95
86;68;64;68
92;84;80;88
92;103;95;74
64;80;94;95
95;109;111;111
104;84;88;88
80;92;111;95
64;72;100;111
95;70;64;80
108;110;111;111
116;104;80;76
91;95;95;74
80;96;102;119
95;68;80;108
118;111;111;111
94;76;76;84
108;111;68;68
84;96;108;111
93;64;72;80
92;72;64;68
92;70;64;80
111;95;71;64
64;72;80;76
76;84;94;95
95;64;64;75
69;56;64;76
95;95;92;92
92;111;95;95
77;64;76;64
64;76;72;64
68;68;76;68
76;88;95;95
95;92;76;72
76;76;95;95
60;64;80;76
76;76;76;88
84;80;72;72
72;84;78;78
68;64;52;71
95;52;64;76
92;84;72;64
64;76;92;78
68;64;48;48
40;40;36;32
52;64;78;87
76;64;44;55
79;64;48;40
44;72;87;95
77;48;68;78
76;64;48;48
44;44;44;40
48;48;64;79
91;63;46;40
64;64;78;87
90;84;84;95
95;95;80;64
72;68;84;88
95;76;64;68
95;48;48;48
64;68;76;68
64;64;72;76
72;52;48;52
64;86;93;95
79;48;52;64
88;95;95;103
109;95;95;79
72;79;86;79
64;64;64;64
64;64;64;68
86;95;79;48
68;84;84;76
68;64;64;68
76;87;95;93
64;52;48;72
95;44;64;86
95;71;52;48
64;95;95;79
56;64;64;76
92;95;95;95
95;87;64;64
96;111;95;68
68;111;111;95
64;88;110;119
111;109;92;84
80;76;80;92
96;102;102;84
84;76;76;76
84;84;68;64
68;95;63;64
95;95;52;64
88;95;95;79
66;68;80;95
94;84;94;100
88;68;64;64
68;95;95;79
64;52;64;72
103;95;95;95
79;79;95;95
92;68;64;80
111;95;64;68
109;103;95;72
64;92;111;95
64;84;111;77
72;88;108;109
102;110;111;85
64;72;84;111
111;111;111;95
76;72;80;96
104;111;103;68
92;111;95;111
119;87;72;80
104;96;84;92
96;111;111;111
111;95;70;68
96;87;68;92
100;80;72;72
84;94;108;111
111;111;119;119
104;96;100;88
72;80;111;111
111;119;111;104
84;76;76;72
92;87;64;64
64;72;80;86
94;95;52;64
52;68;84;76
72;95;48;72
86;64;48;48
72;78;86;94
95;87;68;84
94;63;48;64
64;64;72;95
95;95;95;95
92;80;76;94
95;87;95;95
111;111;118;96
84;88;102;111
118;110;116;108
110;111;111;93
80;78;72;68
72;84;111;103
87;72;96;88
80;100;102;110
109;111;95;74
68;96;119;111
104;76;95;111
96;88;92;96
92;84;80;68
80;88;92;94
84;111;95;87
86;79;95;95
103;64;88;102
110;95;64;76
111;111;111;111
111;111;95;95
103;111;111;111
95;80;84;100
127;78;72;92
119;64;76;84
92;84;80;84
84;111;95;93
68;64;64;80
100;103;111;111
79;78;79;72
76;111;95;93
78;64;80;102
111;79;64;80
108;95;64;64
88;103;102;102
108;103;92;92
100;111;74;68
88;76;64;76
95;79;79;87
60;72;84;103
95;92;110;111
95;64;88;108
111;64;72;88
110;95;95;79
64;76;80;76
94;100;102;92
96;111;64;72
103;111;111;95
87;68;84;111
111;111;111;119
111;92;100;124
111;103;111;111
95;88;93;76
84;100;110;108
127;95;84;72
72;96;106;119
119;119;127;87
84;102;116;116
118;95;72;80
102;119;68;72
84;84;84;96
88;102;111;95
79;64;64;72
96;79;70;64
64;76;108;103
95;64;64;80
111;52;84;92
94;94;72;68
103;87;95;95
111;95;87;64
88;111;103;103
103;87;72;68
80;100;111;111
111;68;84;111
119;119;116;127
111;95;92;72
96;111;84;80
111;119;95;68
96;119;119;95
76;72;80;108
111;111;111;95
84;84;102;108
119;76;92;111
118;118;116;127
126;127;127;127
127;127;112;108
116;120;120;127
126;124;108;104
124;109;76;100
116;111;104;104
104;125;119;127
119;80;110;127
124;118;127;127
127;112;100;104
124;111;87;80
104;104;92;72
70;95;108;80
76;64;68;80
100;95;78;74
79;64;72;88
100;103;111;95
95;64;68;84
102;103;102;100
88;94;80;68
68;76;76;80
92;95;72;64
68;95;79;52
72;84;84;92
94;95;68;60
56;68;92;95
95;64;64;72
92;84;64;52
64;68;68;64
92;95;79;60
64;84;79;68
52;64;76;95
87;60;52;68
103;58;64;92
95;60;64;76
80;76;80;95
103;95;95;64
80;95;87;87
95;64;68;92
111;66;64;72
88;111;111;95
70;72;96;109
111;111;119;119
124;126;104;92
100;127;84;84
96;84;72;76
100;111;111;87
64;72;68;72
84;95;95;68
64;84;103;109
92;80;72;76
80;111;95;111
102;80;80;100
111;111;111;111
119;87;80;96
116;108;118;119
93;78;72;96
118;110;96;100
104;119;111;68
96;116;118;100
80;80;96;102
109;110;100;104
111;111;109;76
72;80;102;111
111;119;118;108
100;108;124;103
72;88;127;95
92;72;72;80
111;95;64;84
100;84;76;72
64;64;52;64
68;76;72;68
64;84;87;71
71;95;88;64
52;64;72;92
95;95;109;87
64;64;92;84
72;72;76;72
68;76;88;92
95;54;64;72
88;95;87;79
56;68;84;95
111;103;108;111
111;119;111;111
111;72;80;100
100;118;119;127
111;111;84;76
80;100;119;95
86;72;96;119
111;111;86;76
96;127;95;68
96;110;111;104
102;104;111;119
103;68;96;119
119;111;111;111
119;76;88;116
127;93;80;100
102;100;80;64
88;111;111;111
100;76;85;111
116;119;119;126
127;84;80;96
127;111;95;103
111;127;127;127
119;84;80;96
116;127;95;80
80;96;125;111
111;78;80;96
118;127;119;111
76;88;92;104
119;119;119;127
127;108;127;126
120;116;100;104
116;125;127;124
116;116;110;104
110;96;76;88
108;95;76;72
64;76;92;95
64;80;111;103
95;68;72;96
84;80;80;111
95;71;64;84
88;76;64;64
84;95;95;84
80;92;95;103
111;79;64;84
108;94;80;76
84;108;103;84
68;68;95;95
79;64;84;102
103;111;106;96
111;64;80;80
84;100;92;92
111;75;64;80
108;95;68;68
92;95;64;64
68;76;92;95
103;111;111;111
111;104;111;119
119;111;76;84
116;87;68;72
72;64;64;64
64;86;95;95
94;88;76;64
64;78;94;89
86;108;95;79
64;108;95;64
72;84;92;111
95;95;111;111
119;124;125;127
127;127;112;100
104;116;100;96
104;127;119;111
127;95;93;95
92;80;84;82
72;80;72;80
84;108;103;100
102;111;108;119
111;117;116;119
127;76;88;96
100;117;119;125
119;117;96;88
96;127;92;76
76;84;100;111
119;118;110;96
84;68;64;64
84;95;64;64
68;88;95;100
102;111;111;111
111;119;111;96
84;92;84;84
80;92;92;84
80;92;92;95
95;111;95;95
79;79;95;95
87;68;68;76
100;111;111;111
119;95;95;72
76;119;119;119
127;76;80;84
96;119;111;85
72;72;84;111
111;111;95;86
78;68;80;102
80;88;84;76
72;92;109;87
64;64;92;103
70;72;102;95
68;64;80;94
92;111;111;111
111;100;108;104
96;84;80;96
100;106;111;111
111;111;119;119
124;127;127;127
127;127;111;84
100;118;126;116
96;88;100;92
96;119;95;79
68;76;100;111
95;79;64;96
111;87;79;84
87;95;95;95
72;72;96;111
111;100;88;88
96;100;111;95
95;64;92;92
92;111;95;85
64;80;100;80
64;68;80;103
103;111;111;110
96;92;92;104
111;119;111;111
127;111;95;84
80;122;111;78
80;84;96;111
119;127;127;111
76;88;116;127
119;111;127;127
119;84;96;112
116;127;127;116
100;96;96;100
92;104;116;117
127;76;80;88
96;119;95;91
72;80;96;100
111;111;93;64
88;110;111;104
102;96;88;88
100;111;111;111
111;68;119;119
116;123;108;104
116;127;124;100
80;76;80;92
96;111;111;111
119;111;95;79
72;104;119;111
111;72;100;104
116;127;95;72
84;96;92;100
100;84;80;88
88;100;111;111
111;111;111;108
104;111;72;80
96;119;111;102
96;84;80;80
96;103;100;88
72;64;71;65
64;100;111;95
87;68;64;64
84;109;111;111
111;95;84;68
96;111;87;64
80;92;111;111
68;76;92;111
111;74;68;84
108;95;87;95
111;111;111;103
95;103;111;127
127;119;101;80
104;104;112;119
112;108;116;127
119;76;88;112
127;127;127;127
127;111;80;100
116;110;100;124
127;127;127;127
112;104;112;116
126;119;119;127
127;103;88;84
108;127;127;127
111;95;119;127
108;104;96;84
84;96;100;92
100;111;100;88
88;104;111;111
119;111;88;80
104;111;111;111
111;124;127;103
84;72;96;118
122;111;78;80
110;111;111;111
116;118;125;118
104;100;96;111
122;125;110;100
88;88;92;88
96;102;111;111
108;119;119;102
88;84;108;111
84;93;86;68
72;96;104;108
111;111;95;95
85;72;68;72
96;111;79;79
64;84;102;111
95;111;106;96
80;76;100;111
96;92;100;106
106;111;70;64
76;76;80;76
84;76;72;92
95;103;109;111
102;84;68;64
64;64;76;93
92;68;74;78
68;64;64;72
72;95;95;79
64;94;109;108
111;108;88;72
64;64;64;64
52;64;80;94
95;79;87;77
79;71;71;64
64;92;111;79
64;80;95;95
111;95;68;68
80;111;103;87
79;78;64;64
76;88;92;98
94;111;111;111
104;100;119;111
119;119;108;100
88;102;111;104
102;119;119;127
119;125;124;100
84;76;80;80
76;76;84;84
64;64;68;84
95;95;84;68
64;64;68;68
72;68;68;95
87;52;48;48
64;80;92;95
95;95;78;64
92;111;79;68
68;79;111;110
100;80;72;64
72;103;95;68
64;92;100;111
95;95;95;87
68;96;111;111
119;116;111;100
92;92;108;102
102;92;92;100
96;95;79;64
80;108;111;95
87;72;64;76
96;95;64;64
80;111;111;111
100;110;111;108
119;111;95;72
88;126;87;72
76;80;102;110
108;88;76;64
72;94;92;84
92;95;52;68
84;87;64;76
111;48;92;79
56;64;76;95
79;64;76;95
95;88;76;68
88;95;103;108
100;108;111;111
103;87;95;70
84;100;100;111
119;87;72;104
111;64;76;84
103;111;86;64
88;110;111;119
111;95;87;72
72;68;76;88
100;84;72;68
80;95;87;75
64;64;72;80
84;68;64;68
68;76;72;68
52;48;44;56
64;52;48;44
56;79;79;60
61;63;79;63
48;68;80;95
95;95;95;103
95;111;111;84
72;72;84;92
84;72;68;84
103;95;87;95
96;72;68;84
104;92;88;80
84;101;111;111
110;92;80;92
100;95;79;95
95;95;64;80
100;111;111;119
109;87;84;86
72;72;96;111
119;93;68;80
100;111;111;119
111;119;118;100
100;116;123;124
108;96;92;108
119;127;111;92
76;126;127;124
127;86;96;118
127;76;100;108
111;127;127;127
120;112;100;84
96;100;111;111
119;111;103;95
95;80;104;108
96;108;119;95
68;92;108;111
119;95;79;80
96;100;110;119
87;72;96;111
111;111;84;72
84;100;106;110
100;100;92;92
100;110;119;111
95;68;96;111
111;116;108;110
116;108;100;127
111;111;127;127
111;84;80;84
104;127;127;127
119;100;104;108
122;119;103;76
96;119;124;118
108;126;127;127
127;112;96;84
92;96;80;80
96;111;111;95
95;111;111;108
127;80;80;104
104;104;111;106
104;100;80;68
88;100;100;111
111;111;68;72
96;111;111;111
108;88;96;111
117;119;119;127
124;112;110;116
126;127;111;80
88;126;125;127
127;127;95;80
108;127;127;95
95;103;103;76
96;127;119;111
127;127;127;124
108;100;96;84
88;108;119;111
104;100;84;72
76;76;88;80
102;111;108;104
100;104;96;92
80;80;72;72
94;103;103;106
110;111;111;111
111;111;127;127
127;119;100;84
112;119;80;96
126;127;127;127
127;119;84;88
104;127;127;127
86;96;126;127
127;127;108;88
80;96;104;127
119;92;84;76
88;116;119;111
103;76;96;119
119;100;100;110
108;100;84;84
100;95;64;68
84;100;95;92
100;103;64;72
100;111;110;102
92;80;72;80
95;95;64;64
72;80;103;95
92;84;68;68
88;95;95;87
64;68;109;95
95;103;95;87
68;72;96;111
111;111;102;76
95;110;84;76
80;92;111;111
108;102;80;68
72;84;94;95
84;80;84;95
111;79;64;80
103;103;110;103
104;111;111;111
111;119;108;84
76;72;80;100
104;102;84;80
88;84;76;64
52;64;95;95
95;103;109;108
84;64;80;102
95;79;64;64
80;110;108;92
72;72;72;84
95;92;95;100
88;88;102;84
80;111;95;87
79;87;93;74
76;110;111;85
70;68;108;111
110;102;104;96
84;84;72;72
68;76;80;95
95;95;76;64
68;109;95;95
95;71;68;76
95;95;111;111
119;100;92;100
96;119;119;119
108;96;88;100
119;111;111;111
111;84;80;84
102;127;119;122
119;127;127;127
111;84;124;127
127;127;127;108
119;127;127;143
127;127;108;96
100;127;119;119
127;127;135;120
96;100;110;127
127;118;104;108
116;127;126;124
124;127;127;127
111;96;84;84
108;124;116;100
104;110;96;96
126;95;95;79
80;102;119;119
108;92;96;102
117;111;111;95
76;80;110;119
108;96;96;111
108;96;96;92
84;100;111;111
111;118;96;84
84;88;84;84
80;72;72;76
64;64;76;92
95;94;80;80
92;103;95;79
76;103;98;68
72;79;95;111
111;110;92;88
96;111;87;68
64;64;76;92
111;103;108;110
119;108;80;72
76;64;64;68
94;95;71;75
64;64;80;103
111;111;100;84
92;100;100;100
96;94;96;111
87;87;87;95
68;88;92;96
110;111;95;87
76;68;68;88
108;110;110;100
108;111;111;95
87;72;72;116
111;111;72;72
84;119;103;95
72;88;119;111
84;76;76;96
102;108;111;119
118;87;84;108
111;72;80;92
96;100;94;100
111;104;108;111
111;119;119;127
127;126;124;104
100;112;100;96
100;92;84;80
80;80;76;76
103;103;111;103
78;72;110;111
95;68;80;96
108;100;111;111
111;108;104;92
80;88;80;76
80;72;80;103
95;79;64;68
111;64;68;88
92;80;76;84
102;92;72;64
72;95;95;79
60;64;80;80
80;95;95;95
95;111;108;92
76;76;76;76
88;94;76;72
76;92;103;103
92;68;64;52
52;52;64;87
84;84;95;95
95;52;68;103
103;109;103;92
88;92;111;111
111;111;88;78
111;111;100;88
76;72;80;80
80;95;76;84
94;86;92;95
88;100;103;100
92;108;111;71
68;96;109;108
96;96;100;96
96;88;84;111
95;64;68;96
111;111;95;111
111;127;127;127
94;80;84;104
116;125;127;127
126;127;127;127
127;127;126;112
112;118;122;112
104;96;88;100
116;119;119;119
127;127;127;127
116;104;92;96
96;100;96;100
111;111;82;95
95;72;92;100
111;111;119;119
108;88;80;72
92;108;102;96
92;88;80;102
102;111;111;111
119;119;111;108
88;88;84;96
111;111;111;111
96;92;100;92
100;92;80;84
80;68;64;87
103;111;111;111
111;119;119;112
100;84;76;96
111;111;68;76
110;111;111;100
92;111;108;84
68;68;68;80
102;100;76;72
92;103;103;111
108;111;95;79
64;80;84;80
84;111;110;92
80;84;94;103
111;64;92;111
79;64;80;84
94;103;94;94
106;100;88;84
84;95;88;72
64;64;72;78
76;84;80;72
80;64;52;48
48;84;94;95
79;48;64;76
95;87;48;80
95;87;95;103
109;109;88;72
64;76;111;95
87;79;64;68
100;95;74;64
72;111;79;64
68;72;76;88
80;80;80;95
95;86;80;68
64;64;52;64
76;87;95;84
68;86;92;86
95;103;103;111
111;102;92;84
76;64;64;52
68;64;68;76
86;76;64;72
86;95;95;95
95;95;103;100
108;111;111;111
76;88;100;102
104;108;100;96
80;64;76;92
111;103;108;88
72;76;72;88
84;100;103;103
111;111;111;111
68;92;100;88
80;84;84;76
84;84;72;72
64;48;64;76
94;95;95;92
72;64;68;80
80;84;84;72
64;64;68;78
95;95;95;52
76;102;95;77
68;68;96;88
80;76;72;86
88;95;95;95
111;111;95;76
68;70;64;80
92;92;84;111
93;68;72;84
92;102;111;95
64;92;102;106
111;95;64;80
100;111;87;68
76;100;111;111
96;84;72;80
86;88;76;88
92;110;108;111
111;108;88;80
84;84;88;86
88;76;64;64
72;92;93;95
94;103;111;95
79;64;64;76
100;86;76;84
100;95;96;111
95;70;64;84
111;71;64;88
92;92;95;103
111;87;64;72
96;111;79;68
64;64;92;111
108;84;79;111
100;80;72;72
110;95;64;76
111;111;111;111
79;68;76;92
96;108;108;92
80;84;88;84
95;95;102;100
96;111;111;95
95;76;72;88
100;102;108;119
87;72;88;96
102;111;111;108
92;96;111;111
110;119;95;87
76;72;80;80
80;92;100;109
111;111;119;116
96;80;87;87
70;84;92;84
80;68;68;76
102;79;52;64
86;95;95;56
72;95;68;64
80;68;68;64
76;94;95;94
100;95;95;95
95;72;64;80
100;79;64;80
92;100;92;108
95;64;64;76
88;100;95;94
103;84;64;64
64;84;80;86
92;84;76;76
76;95;77;52
68;84;94;95
94;86;76;76
88;95;95;68
64;80;80;100
109;79;64;64
84;109;95;87
74;70;64;72
100;64;72;88
88;92;103;109
108;92;72;80
94;92;84;80
72;64;64;76
95;48;68;76
95;95;95;103
103;111;111;100
108;111;64;72
111;95;64;72
96;95;95;95
86;64;72;80
92;95;64;64
80;84;72;64
64;68;76;92
88;94;88;92
94;80;64;52
52;64;68;76
95;95;55;52
64;88;88;95
95;64;64;76
92;103;107;103
106;106;108;111
111;64;88;96
108;100;84;76
76;84;92;84
76;76;64;48
64;76;84;84
88;95;79;79
95;79;68;64
80;95;56;64
80;84;103;95
64;68;84;84
86;84;76;76
80;84;64;64
76;92;95;95
95;103;109;111
109;111;96;80
68;76;92;111
93;64;80;76
72;72;80;86
92;94;80;84
95;95;93;64
84;95;84;72
68;88;95;95
84;76;64;64
76;92;95;95
71;64;72;84
80;72;64;64
84;95;92;84
92;95;95;95
95;70;64;64
80;76;68;76
92;95;95;103
102;103;111;111
119;95;76;68
80;96;96;92
100;88;68;76
100;109;103;84
68;64;84;95
92;72;64;64
92;103;95;87
71;64;76;103
103;64;111;111
95;64;80;111
103;84;76;84
84;92;95;92
80;80;76;80
76;92;95;103
110;111;111;102
80;64;68;72
76;80;95;101
103;111;108;102
102;111;111;119
127;127;127;127
127;127;127;119
107;88;84;96
112;124;100;80
76;68;68;64
80;84;103;95
71;68;72;92
100;109;103;111
95;87;72;68
96;95;76;68
64;84;76;72
76;68;76;72
80;87;64;76
95;95;84;76
76;76;84;80
84;72;72;86
92;94;88;76
64;60;87;95
80;72;64;64
76;87;94;95
95;95;69;64
80;88;111;87
64;64;76;84
100;95;75;87
87;64;64;76
92;111;95;95
68;76;92;94
84;76;64;76
92;95;76;95
95;64;84;103
100;84;80;68
76;76;80;80
84;95;95;95
111;79;78;71
64;88;110;111
111;93;68;80
88;84;84;94
107;103;103;100
102;92;108;111
111;119;95;72
80;100;119;95
70;76;64;72
80;94;94;109
108;111;111;100
92;96;100;102
92;72;64;64
64;64;64;76
84;87;76;64
52;64;64;64
95;48;72;89
78;68;68;64
84;95;95;95
95;80;64;52
68;80;95;79
52;64;68;80
95;93;72;64
64;64;95;95
95;71;52;80
103;48;68;84
103;48;68;76
80;95;87;71
52;64;92;95
71;64;64;68
88;95;95;111
95;111;111;119
111;72;84;92
88;84;84;84
80;94;108;103
111;111;93;95
109;125;100;84
111;104;84;111
96;88;108;111
104;96;100;111
119;111;110;100
96;96;96;96
84;72;72;72
72;84;102;111
95;76;79;79
64;68;76;88
100;88;80;86
88;76;68;64
64;64;64;64
64;64;64;64
90;63;58;52
44;64;84;92
92;95;94;88
84;92;84;76
72;64;48;44
64;68;64;48
64;95;63;63
69;69;95;95
92;95;92;80
76;86;95;101
103;102;100;92
92;76;72;68
80;76;64;48
64;72;90;86
76;80;80;92
84;76;80;84
95;79;48;64
76;64;48;64
68;72;64;68
64;64;64;68
90;40;64;76
95;79;54;48
52;52;52;64
68;64;76;79
76;72;64;64
87;79;79;71
54;48;64;78
94;95;95;95
87;64;84;111
95;95;95;74
68;88;96;102
108;106;111;110
108;100;88;100
100;92;88;76
72;84;95;103
108;109;92;80
80;92;111;95
70;64;64;80
111;95;95;79
64;84;111;74
64;80;72;72
64;68;80;95
79;56;52;68
84;94;95;95
95;64;64;64
80;111;95;79
74;64;64;80
94;111;95;95
64;64;88;92
94;88;80;64
64;64;68;78
64;64;64;72
94;95;95;94
72;64;56;71
60;52;72;95
95;60;56;52
64;88;79;48
86;79;52;64
76;95;79;62
64;92;80;64
92;95;86;80
80;92;95;95
103;79;64;76
80;92;103;103
84;102;111;95
95;95;95;87
68;76;104;111
72;84;96;102
111;111;95;76
72;96;96;96
92;92;108;111
108;111;111;111
119;119;127;127
127;108;88;88
100;127;84;80
108;119;84;68
88;127;78;68
104;111;111;87
68;76;76;96
111;111;111;111
95;103;91;76
80;76;72;96
111;111;119;119
108;92;84;92
111;111;118;119
127;127;95;72
100;103;68;100
110;116;127;111
119;127;86;84
108;110;100;116
119;84;72;88
88;108;92;92
100;100;111;111
111;119;119;119
86;80;80;96
119;119;119;119
96;80;76;80
84;104;111;93
64;72;84;84
88;88;100;108
100;88;80;76
92;84;76;86
103;87;87;87
70;64;64;64
64;68;72;84
92;95;95;95
80;84;68;56
64;80;88;95
79;77;52;64
84;95;95;103
111;103;111;111
111;84;76;93
111;111;79;68
80;84;103;102
111;111;100;96
96;96;109;111
111;76;64;72
108;93;64;80
111;87;68;64
76;100;87;64
64;96;95;71
64;80;109;111
111;111;111;103
91;68;80;92
110;78;68;84
96;94;103;108
111;95;74;68
92;111;103;95
95;72;64;68
88;95;64;72
100;71;64;80
92;111;95;87
111;111;100;104
102;108;118;104
96;119;108;88
68;84;84;84
64;64;80;111
95;74;68;64
64;72;80;95
109;101;84;76
80;92;95;94
88;95;56;64
72;88;95;95
95;64;64;68
84;111;71;56
72;88;103;109
103;111;111;111
111;72;72;84
88;108;111;111
110;100;108;111
116;104;108;104
102;92;80;72
88;111;77;76
64;64;72;68
68;72;76;84
95;94;88;76
84;95;79;48
72;95;95;95
70;79;64;64
92;100;102;94
84;76;72;76
94;95;65;52
72;95;103;95
76;64;80;88
102;111;87;64
80;105;108;106
96;111;106;100
84;72;64;64
80;84;84;88
76;76;94;95
103;95;75;64
68;76;72;64
64;72;88;95
95;95;103;103
92;88;102;111
87;64;80;88
80;84;103;108
111;95;64;68
104;95;68;64
88;111;79;64
92;111;103;79
64;88;111;87
79;64;64;76
96;111;78;64
80;109;109;111
111;95;64;104
111;79;68;80
88;80;64;64
68;84;94;95
94;84;80;72
76;95;95;95
100;111;87;68
64;64;64;52
64;64;76;86
95;95;95;64
72;84;76;76
84;95;60;64
84;95;95;94
76;84;86;102
87;64;76;88
95;100;108;96
92;110;109;106
111;111;108;92
84;88;92;96
100;111;104;96
111;111;79;68
92;104;100;102
111;111;111;111
119;104;88;96
110;119;119;119
124;127;126;118
104;88;88;80
88;96;96;92
100;111;95;95
76;76;64;68
92;110;95;64
84;95;79;93
95;109;111;111
124;114;127;111
90;76;84;88
108;125;119;116
100;96;127;95
68;76;76;88
108;102;88;72
88;108;111;111
111;111;119;119
108;102;119;87
72;92;111;111
111;103;87;72
92;124;111;95
72;96;108;126
111;76;72;79
76;72;84;96
111;95;64;64
72;106;111;100
72;72;87;87
76;64;72;84
111;64;68;84
80;109;103;102
84;64;64;52
68;92;95;95
109;87;74;64
64;72;72;68
72;84;95;95
95;94;72;64
80;95;58;64
100;95;64;72
92;103;95;64
72;108;111;79
64;84;98;100
88;109;111;64
84;103;109;103
92;111;93;72
64;84;95;64
64;88;84;84
80;84;92;84
72;64;64;68
72;63;48;76
64;64;52;64
48;56;64;64
68;91;63;40
64;68;95;63
44;64;80;95
79;60;54;44
64;76;68;64
64;72;95;63
48;95;95;68
77;56;52;52
92;95;95;95
88;84;84;84
84;103;103;109
100;80;72;76
92;88;84;84
88;95;48;76
95;95;64;64
76;92;95;94
72;64;52;64
72;84;64;72
95;95;95;76
64;64;64;72
76;86;92;88
84;88;95;95
95;92;103;94
76;76;76;76
80;84;95;95
103;111;95;69
64;88;111;79
85;95;111;108
88;92;80;80
76;80;109;95
79;111;110;108
92;96;119;111
118;100;92;80
84;88;100;100
80;68;87;95
94;68;95;84
72;92;108;87
64;80;107;92
94;111;111;95
111;100;84;84
80;84;111;95
95;74;68;68
92;100;94;88
92;110;111;79
64;64;64;80
102;95;64;64
80;100;111;103
111;78;68;64
76;110;95;68
72;111;79;64
64;72;92;111
87;64;86;94
102;111;111;111
116;104;84;76
84;94;111;93
87;95;111;117
100;100;104;108
104;111;119;117
118;127;119;111
127;108;92;80
95;119;100;80
76;68;68;80
100;111;103;111
118;119;111;76
80;100;110;84
68;80;111;79
72;100;111;111
92;88;104;111
111;79;64;80
96;100;108;111
79;68;72;80
72;64;64;80
109;95;95;106
84;76;76;80
88;95;92;72
64;68;72;76
76;95;60;64
80;86;94;94
88;76;76;92
95;95;79;64
64;84;94;100
111;64;64;68
80;103;95;52
80;95;52;72
88;95;66;64
72;80;109;95
103;92;84;80
84;92;80;64
68;72;84;88
76;72;80;95
95;95;65;64
80;103;103;95
76;64;64;52
52;64;64;68
94;79;60;48
84;79;95;95
76;72;76;80
76;68;68;64
72;64;64;64
84;87;79;95
95;103;95;80
68;80;100;95
102;100;94;92
100;95;95;95
79;64;72;111
95;79;87;68
72;111;79;64
72;80;100;100
88;76;68;56
64;84;86;80
72;72;76;86
76;95;79;54
64;76;95;95
95;102;103;100
92;84;84;92
92;84;92;100
92;84;72;72
76;84;95;95
95;84;68;72
84;103;71;64
92;95;79;56
68;92;110;87
64;84;84;95
102;109;88;80
80;111;79;76
64;64;64;68
84;103;103;103
94;94;84;84
94;95;100;111
103;76;68;64
68;100;95;71
64;64;52;64
68;92;95;52
84;95;95;78
64;64;64;64
76;95;95;79
60;64;80;92
95;95;103;108
100;88;80;92
100;103;94;96
111;111;111;108
92;104;110;119
116;108;111;127
119;102;104;104
96;102;104;108
100;95;68;76
92;111;87;64
102;95;93;64
80;96;102;102
88;76;64;68
100;95;95;111
100;92;84;72
72;111;95;79
64;80;111;78
64;64;76;92
95;64;88;103
111;94;80;98
96;111;95;68
72;100;110;111
111;111;96;80
88;111;95;79
80;111;111;102
84;96;102;92
80;100;111;111
111;111;104;102
119;111;110;88
72;68;80;103
111;95;87;64
84;111;95;76
68;68;68;84
109;111;111;111
111;111;110;104
96;119;95;68
100;119;111;68
76;111;95;68
108;95;87;64
96;110;100;111
103;76;72;88
84;96;110;95
64;92;111;111
95;111;88;68
87;108;76;76
103;68;76;87
111;108;80;68
64;92;111;79
64;72;100;111
103;111;92;68
64;76;92;106
111;103;76;72
84;111;111;111
111;111;110;102
100;127;111;95
72;96;96;111
119;87;72;68
92;111;111;111
108;96;100;111
111;119;118;127
127;127;127;104
112;127;127;127
124;116;112;108
104;118;125;92
80;100;112;108
92;100;117;119
118;117;100;96
116;104;108;100
84;92;111;119
95;95;95;95
95;84;79;72
80;96;104;100
88;72;68;68
84;109;87;69
64;68;102;87
64;68;76;76
76;86;84;68
76;95;95;92
80;102;95;56
68;84;102;103
95;64;72;86
84;84;84;92
106;102;111;95
109;119;111;95
76;88;119;119
111;119;127;119
96;84;88;100
126;119;119;108
100;124;95;72
84;110;119;111
119;119;111;103
80;88;116;127
119;76;92;104
116;119;125;127
127;76;88;112
122;127;127;127
127;127;120;112
108;124;127;127
108;110;127;119
119;124;96;100
111;92;80;108
127;127;111;84
84;126;103;95
90;95;125;110
104;127;127;127
127;112;88;84
111;92;80;104
118;100;84;84
119;78;64;68
88;100;103;111
111;68;64;72
84;111;70;64
64;64;76;76
103;95;109;111
111;64;68;76
102;102;102;92
80;76;72;68
80;95;94;92
92;111;102;100
108;88;76;72
84;94;94;92
80;64;64;72
95;95;102;94
92;88;80;76
64;64;84;80
84;84;76;72
68;64;52;48
72;79;52;48
68;95;87;71
48;64;64;76
84;95;95;86
92;80;92;103
111;56;76;111
87;64;86;109
95;111;111;111
111;119;127;127
112;100;100;108
116;127;127;127
127;95;88;84
96;100;123;111
95;76;72;72
88;100;92;92
96;111;79;64
68;88;92;102
111;111;95;72
68;80;100;88
76;72;64;80
100;95;56;68
80;109;111;87
87;95;111;103
87;80;119;127
127;111;119;127
127;127;116;108
100;96;96;116
127;125;127;127
127;126;116;104
96;96;127;127
109;76;104;126
127;80;124;127
127;127;120;120
124;127;127;80
100;111;84;76
96;119;127;127
80;84;108;125
127;103;94;80
84;96;116;127
127;119;111;95
95;95;80;80
88;127;127;127
127;124;108;127
127;103;88;108
127;127;127;127
127;92;84;96
104;122;127;118
110;116;127;95
80;84;96;104
110;117;119;119
124;110;108;126
127;111;84;88
96;110;127;95
76;88;127;103
76;100;119;111
103;125;104;96
84;100;119;119
111;79;80;100
108;96;84;68
80;111;111;96
84;80;72;76
84;94;103;100
84;84;72;64
64;80;95;94
76;84;103;71
52;52;64;64
76;95;95;95
79;72;111;71
64;88;111;79
64;72;111;87
64;64;84;111
103;111;111;111
111;96;96;118
119;95;72;80
92;111;76;68
76;92;100;96
96;88;96;111
95;95;111;111
96;96;116;119
119;108;96;96
108;104;102;108
96;108;111;87
72;108;95;64
96;111;111;108
117;119;111;84
80;96;118;111
111;78;72;88
108;111;111;118
108;116;118;127
127;119;125;111
92;86;80;96
96;112;117;124
127;127;95;80
84;100;104;96
96;92;92;92
88;92;95;64
64;64;72;88
86;76;88;92
92;102;80;72
80;92;84;68
68;80;86;95
95;71;52;64
86;95;95;95
95;102;96;92
80;72;80;84
86;103;102;103
100;84;84;80
76;80;103;103
87;64;68;86
108;87;79;71
64;76;84;88
100;71;56;68
102;95;111;111
119;119;116;124
124;111;76;84
96;124;125;119
112;104;108;116
92;92;96;119
111;111;119;127
127;88;80;108
127;116;84;76
72;72;92;111
111;108;84;80
84;102;111;111
95;95;111;100
76;76;68;68
80;84;88;103
111;111;111;95
79;72;64;68
88;108;108;102
102;84;76;68
88;110;109;111
111;111;104;92
92;111;111;119
111;119;103;76
80;92;108;119
95;72;72;64
80;111;111;111
108;88;88;96
104;119;111;90
72;96;111;111
87;68;76;96
100;84;80;108
111;95;76;64
68;84;110;111
87;80;111;111
110;84;72;87
95;68;84;88
100;100;80;68
68;84;80;76
80;76;92;95
87;71;79;79
79;70;64;76
84;72;92;103
95;103;111;111
111;111;108;92
92;100;116;111
111;100;96;100
108;119;119;95
72;96;127;119
119;124;118;108
96;100;100;100
96;92;92;108
111;111;100;88
88;84;80;72
80;94;92;94
88;64;64;79
95;111;95;111
108;118;118;100
80;80;80;84
104;111;111;108
100;119;95;95
87;72;84;92
108;111;119;119
116;116;112;127
111;95;103;86
80;76;96;108
111;110;96;96
110;108;88;72
84;111;111;87
68;88;111;68
68;92;111;111
78;72;94;111
111;111;119;111
96;80;84;104
110;119;119;127
124;119;96;88
88;100;100;118
111;100;108;119
119;119;111;119
127;111;127;120
96;96;126;127
127;127;108;96
84;127;119;103
76;108;127;95
76;96;111;110
118;125;116;124
118;100;96;104
108;119;127;127
104;88;80;80
84;111;111;87
68;80;108;111
111;68;88;111
111;95;68;84
104;84;64;64
76;95;84;72
88;102;102;80
76;92;88;84
92;100;103;100
92;84;92;80
72;64;64;64
72;80;64;48
44;64;72;82
80;68;52;64
76;84;95;86
72;68;68;78
86;88;95;63
52;68;80;72
64;64;78;86
80;76;52;79
72;48;44;52
76;95;95;84
68;52;48;48
68;95;95;95
95;94;72;64
52;64;76;88
95;86;92;88
88;92;76;68
64;64;64;76
76;94;88;95
84;76;76;84
94;95;108;111
111;104;96;76
68;64;64;64
72;80;78;52
52;52;64;64
76;87;76;64
64;86;92;76
68;76;64;64
76;95;79;48
64;95;92;92
95;92;64;68
95;103;102;111
111;104;76;64
64;84;95;79
64;64;64;64
86;103;95;79
93;64;64;68
72;80;80;76
95;95;95;94
68;68;72;76
86;95;95;95
84;72;64;76
95;95;69;64
84;103;110;111
108;94;84;72
68;88;103;111
109;111;108;108
88;92;111;111
111;95;72;72
80;72;72;92
108;95;79;95
110;80;68;68
102;111;111;111
108;88;92;92
100;88;84;84
88;94;102;111
111;111;111;96
72;76;84;100
92;76;64;64
84;103;103;95
95;111;84;68
72;96;111;95
68;76;100;111
109;119;127;95
80;110;127;119
104;84;80;88
100;111;109;111
125;111;96;124
119;118;100;96
96;92;104;111
119;116;100;96
108;100;104;108
104;119;119;110
96;76;72;88
92;111;108;92
84;84;84;103
109;111;111;119
119;95;72;84
88;100;88;88
92;111;111;111
95;72;68;84
104;95;87;87
87;87;111;111
119;118;122;127
127;127;116;96
84;92;119;127
127;127;127;111
92;88;112;127
119;127;127;127
120;116;116;124
112;127;112;118
127;76;112;119
92;76;96;100
104;110;119;119
111;84;84;110
127;119;119;127
119;80;100;127
127;119;127;111
92;96;96;108
104;88;80;84
84;108;111;108
111;96;111;111
95;68;96;108
102;117;111;111
100;88;88;100
96;108;103;84
76;76;84;109
111;64;84;100
111;64;76;92
111;111;111;95
68;80;95;68
106;111;111;111
96;72;68;72
92;88;68;68
84;95;103;111
111;64;76;92
92;111;111;103
84;68;79;95
110;104;96;92
88;80;92;103
102;103;84;72
64;64;72;92
95;80;68;68
64;64;64;80
95;92;68;64
52;64;68;90
95;87;95;94
84;68;56;64
79;95;94;94
88;68;64;68
76;84;64;64
68;68;56;64
68;87;95;95
77;52;76;94
95;95;52;64
84;103;95;79
64;64;84;88
84;80;80;95
95;95;103;96
100;111;102;102
100;106;88;76
80;92;111;111
79;64;80;100
111;106;92;84
72;84;80;76
76;84;95;103
95;64;94;109
111;70;64;72
92;111;111;95
64;80;92;80
84;88;80;88
94;80;64;68
80;87;79;71
52;94;95;60
64;94;84;68
72;95;95;103
95;94;84;88
88;94;103;102
100;103;100;111
111;87;84;78
64;92;88;80
76;64;52;64
80;95;54;64
88;95;95;79
64;64;80;102
95;52;80;95
84;80;68;64
72;84;95;95
79;76;52;64
72;68;76;68
64;68;92;95
86;64;64;64
88;95;95;84
68;64;72;95
95;95;95;87
64;84;111;95
95;79;64;80
111;95;111;109
95;87;68;88
108;111;119;119
111;86;76;84
88;96;96;92
88;94;88;84
80;72;64;68
68;64;68;95
95;95;95;66
64;84;100;102
100;84;64;64
64;68;68;68
72;64;64;64
64;64;64;92
79;40;64;68
84;52;64;94
95;79;71;48
72;84;84;94
94;80;64;52
64;95;95;54
64;64;64;64
64;95;95;95
95;95;95;72
76;106;111;111
108;84;68;72
80;103;95;64
68;68;86;92
76;95;84;84
80;64;68;72
68;76;68;64
86;63;48;68
64;93;92;94
84;88;95;90
72;64;76;76
64;64;64;64
76;94;94;76
76;68;68;64
64;95;79;61
48;64;80;95
95;95;92;102
109;108;104;100
96;88;84;100
111;111;111;104
104;104;96;92
111;95;79;64
84;88;80;95
107;111;111;110
88;80;76;72
80;76;72;95
103;95;109;108
102;80;68;80
106;64;64;76
108;71;52;68
103;111;95;111
111;79;64;64
64;76;84;92
88;72;76;68
72;95;79;62
64;72;76;84
80;86;68;64
64;76;95;95
95;95;109;96
76;64;56;64
84;94;68;64
68;68;68;86
95;94;84;72
68;72;84;84
95;95;95;84
68;68;64;64
64;64;80;92
95;95;95;76
64;80;88;84
68;64;52;64
76;95;95;95
103;103;101;103
84;92;110;111
111;102;100;92
102;119;95;64
84;84;92;103
108;102;80;64
72;88;88;64
71;92;64;79
87;95;79;64
64;111;95;64
64;72;68;72
80;95;79;95
79;64;80;100
108;111;111;110
96;84;68;64
64;84;111;79
64;68;72;84
92;95;95;100
92;96;92;100
84;100;84;76
84;111;95;77
64;84;72;72
72;64;64;84
95;79;52;72
84;80;64;48
64;76;78;92
95;95;79;56
64;92;71;48
72;76;68;68
94;47;64;84
95;60;48;68
84;95;52;64
80;90;95;95
76;66;64;68
84;84;72;76
95;79;52;52
64;68;64;68
84;95;62;48
64;80;95;95
52;64;80;95
95;79;64;64
72;103;102;101
108;111;111;111
84;92;108;116
119;111;116;100
96;96;96;96
104;92;92;100
111;77;64;64
80;92;84;84
76;88;84;86
80;76;76;92
95;60;52;72
92;95;84;76
72;95;95;95
88;80;76;88
103;95;95;93
77;70;64;64
64;76;102;103
92;68;64;84
88;94;84;95
92;80;72;76
72;95;95;52
64;64;68;88
95;95;92;102
103;95;95;79
64;72;84;100
111;95;111;111
109;100;88;72
84;88;86;92
109;95;95;111
111;119;127;111
72;80;92;92
100;96;88;68
64;68;68;76
68;80;95;86
64;64;52;64
76;95;95;95
68;52;48;64
64;84;84;72
64;64;64;76
84;95;92;84
72;64;64;64
68;68;64;64
68;76;72;68
68;91;93;86
68;64;64;95
95;52;68;92
95;95;95;95
108;103;88;76
76;80;76;72
86;84;72;72
64;64;68;72
76;84;80;80
72;68;56;56
72;92;93;86
64;68;48;40
64;86;84;90
84;95;77;48
64;64;52;52
64;68;72;84
94;79;71;48
64;84;84;68
64;68;76;93
95;95;72;56
87;72;60;57
48;48;64;78
95;79;54;48
80;87;72;68
64;68;72;78
84;95;84;64
52;52;70;93
95;95;76;64
72;95;95;79
60;64;80;103
111;64;84;94
111;103;77;64
100;95;71;64
68;88;84;88
92;86;76;72
76;72;64;64
95;95;71;52
64;95;95;95
103;71;64;64
80;108;78;56
64;64;76;88
84;95;103;95
79;64;64;64
103;95;71;68
64;64;68;76
88;102;95;80
76;80;88;80
64;52;52;64
72;95;92;72
68;94;88;92
88;76;64;52
64;95;52;48
48;70;84;84
72;84;76;80
72;76;84;80
76;68;64;64
76;95;95;95
92;84;68;76
84;111;87;95
95;94;84;76
84;84;94;103
109;95;64;76
80;94;102;111
95;72;80;105
96;84;84;98
102;88;72;72
76;80;72;72
64;68;72;68
76;64;52;52
64;95;87;79
68;48;68;80
95;95;79;87
64;64;80;95
84;88;72;76
88;95;52;64
76;103;95;95
95;110;102;80
68;88;111;103
64;72;80;92
94;84;72;68
72;76;86;84
76;68;48;48
64;76;95;63
48;84;95;95
88;84;92;94
102;84;64;52
64;72;68;64
56;68;76;80
76;68;76;87
76;76;52;44
40;44;70;84
95;79;57;48
64;64;68;76
76;76;64;48
52;76;95;95
79;52;64;68
72;68;64;52
64;64;72;79
72;72;76;79
84;92;76;68
64;68;78;95
95;71;52;64
76;86;88;95
79;52;76;95
103;77;64;64
92;95;64;84
92;103;103;96
76;72;64;64
92;79;52;52
80;95;79;52
64;76;76;76
76;95;95;95
93;95;76;70
64;76;102;103
79;64;84;80
68;64;64;80
84;95;95;95
92;80;64;95
103;102;96;96
100;111;95;79
76;64;88;96
111;95;64;64
84;100;111;95
78;64;84;110
111;111;92;72
80;111;95;103
111;118;119;110
100;125;118;127
95;109;95;111
127;116;96;111
118;110;127;127
127;127;127;124
104;100;100;96
96;88;80;80
100;111;111;111
111;87;88;119
119;127;84;80
80;100;119;95
78;68;68;76
88;110;92;84
76;88;111;87
95;111;111;93
92;64;96;111
111;116;119;118
102;110;116;118
116;125;127;127
95;103;111;127
127;124;104;100
124;127;111;92
84;104;96;80
80;118;95;68
80;100;100;84
84;108;111;77
79;74;64;68
100;95;95;111
79;78;64;88
108;95;64;68
96;79;64;100
95;64;68;64
72;86;76;64
68;86;95;95
95;95;111;95
68;68;96;108
108;108;111;111
119;119;111;111
119;95;80;100
127;111;95;80
76;116;102;96
84;104;111;119
119;125;119;127
127;110;100;92
96;127;127;127
127;127;120;112
96;88;80;72
108;95;76;68
72;80;72;94
108;100;84;80
80;92;100;103
92;88;94;84
80;88;95;103
111;95;95;95
64;104;110;111
95;68;96;111
111;117;116;122
103;72;96;108
100;118;119;125
124;116;108;96
96;122;127;95
72;80;96;96
100;111;111;111
111;119;127;119
96;96;96;104
111;100;88;80
84;110;100;92
84;80;76;72
80;111;87;95
95;79;79;76
72;95;100;72
77;76;68;64
64;80;88;111
79;64;64;64
88;95;95;103
100;108;111;111
95;68;68;84
100;111;95;76
64;84;80;72
102;111;87;87
68;88;88;76
64;68;76;80
76;72;68;76
95;79;52;64
76;95;48;64
72;92;95;95
84;64;60;71
87;71;52;64
84;79;64;84
84;92;88;95
94;95;103;100
84;103;111;95
68;72;64;64
72;100;103;95
92;108;110;100
84;110;111;111
93;68;68;96
111;111;111;95
103;103;76;72
68;88;100;92
96;111;111;92
72;68;68;100
110;111;111;92
80;84;84;92
110;111;111;119
111;111;127;111
111;80;84;72
92;100;100;111
95;95;72;72
96;95;79;64
68;92;86;80
84;88;80;76
76;95;71;48
80;87;60;64
92;87;52;52
68;95;95;95
95;87;64;96
102;111;87;64
84;108;104;92
100;108;100;100
80;68;64;64
64;72;84;103
103;95;64;72
80;103;79;64
68;84;94;88
92;103;111;95
64;84;108;110
108;110;100;88
80;103;111;111
111;95;68;84
100;111;95;84
68;84;100;88
80;76;72;84
95;79;56;64
76;76;72;76
80;72;64;64
64;64;92;79
95;95;103;103
100;84;68;68
64;64;52;64
64;76;92;95
95;52;64;92
95;60;68;84
103;95;111;111
96;80;64;68
84;109;103;109
106;111;104;100
100;119;87;76
96;119;64;84
88;84;68;80
92;111;52;76
92;95;95;108
111;95;70;64
80;92;103;103
103;88;68;64
64;80;103;95
103;103;106;111
111;111;96;80
80;108;87;68
104;108;102;100
92;88;84;84
84;107;103;92
80;84;111;111
96;84;72;72
84;95;84;86
103;95;79;64
64;64;80;88
92;88;76;64
64;88;95;103
95;70;64;64
84;111;52;64
84;95;70;64
84;84;92;95
111;95;111;111
119;111;119;111
92;72;100;119
111;95;68;72
96;111;119;119
116;92;76;84
104;92;84;84
94;92;94;92
84;110;95;70
64;72;84;92
94;84;76;64
64;64;64;72
76;78;76;68
72;72;95;63
60;77;79;79
68;52;64;64
76;95;76;68
80;84;86;80
72;84;95;95
87;56;64;92
94;103;80;64
64;76;84;92
80;72;72;80
76;84;95;95
84;68;68;80
84;95;79;77
64;88;103;95
78;72;111;60
76;111;79;68
64;76;92;110
95;95;79;64
72;92;84;72
84;103;111;87
64;72;84;106
109;111;111;111
119;111;95;95
119;127;122;112
104;127;116;96
80;84;116;111
68;96;104;119
111;72;72;88
100;108;111;103
109;125;119;100
96;127;103;119
127;119;108;104
108;124;95;72
96;118;111;95
94;84;80;88
100;104;111;111
111;119;68;88
108;119;111;111
88;118;119;116
108;112;124;119
111;76;80;96
122;111;95;79
88;110;111;119
124;127;127;103
80;96;108;118
110;122;122;127
124;119;110;96
88;110;125;127
127;127;127;127
127;116;104;104
124;124;127;127
119;84;96;108
122;111;80;84
96;118;111;95
72;80;80;80
88;102;111;95
68;68;64;68
88;95;95;95
95;95;111;95
68;80;80;76
80;84;92;76
84;94;95;86
80;76;64;60
48;80;95;95
71;64;64;76
80;95;87;71
52;68;80;103
95;109;94;100
103;103;100;110
111;110;96;108
111;119;119;119
100;76;72;92
106;110;119;111
119;87;72;80
92;111;110;92
84;108;111;95
79;68;102;106
111;110;119;119
124;95;72;72
84;110;118;111
108;104;100;116
125;103;87;78
72;72;80;92
80;76;88;88
107;111;87;64
64;80;94;84
72;64;76;79
95;103;88;64
64;72;92;109
103;88;68;64
64;84;95;95
64;64;72;100
111;64;68;92
111;95;111;95
76;68;84;102
106;100;111;111
95;72;88;84
68;92;88;64
68;56;52;64
84;95;95;103
92;80;72;76
84;88;95;94
72;64;68;64
64;64;64;70
64;64;64;72
87;92;90;76
84;84;92;95
79;95;95;72
64;68;80;88
80;76;84;95
95;60;68;92
102;95;88;80
80;110;95;95
95;87;64;76
88;95;64;80
80;86;76;80
94;88;64;64
68;92;95;95
103;111;111;95
72;72;80;110
111;111;108;119
95;68;84;92
108;111;111;78
68;88;88;88
84;80;68;72
100;95;95;68
64;84;111;103
95;93;87;87
68;64;84;111
103;95;70;68
80;111;95;111
111;111;88;68
80;111;95;68
76;104;111;111
111;111;111;111
116;119;124;127
118;108;88;76
100;108;108;96
88;96;119;111
111;116;92;84
96;96;84;68
76;84;72;68
92;95;87;79
95;111;111;111
100;110;119;119
119;112;88;76
76;72;92;108
104;110;111;108
100;84;72;68
80;76;68;80
95;95;95;95
111;88;68;64
64;80;84;94
100;88;76;64
64;88;79;52
68;95;95;95
79;64;64;72
88;86;72;72
92;48;48;64
84;86;86;64
64;64;72;95
95;44;64;72
92;52;48;52
68;90;95;95
95;95;79;52
80;103;111;95
95;78;64;72
80;100;111;108
102;108;111;111
111;119;103;78
72;88;119;119
111;95;119;124
110;96;100;104
96;88;84;96
111;108;119;95
68;104;111;111
111;111;104;92
110;95;68;84
100;111;95;87
64;92;119;111
111;119;127;111
127;127;116;100
100;118;119;119
104;100;108;111
116;116;119;123
124;112;116;127
127;127;111;103
92;88;95;103
92;80;96;100
96;110;111;100
104;111;119;119
123;108;92;92
96;96;92;84
84;88;84;84
86;95;111;95
95;111;119;119
123;104;92;80
76;96;119;111
76;68;68;72
84;84;107;111
111;108;111;95
68;88;108;111
111;111;111;119
119;119;119;100
88;84;72;64
72;94;111;111
111;111;111;87
72;88;108;102
100;111;111;110
100;110;117;116
108;96;84;84
92;92;80;72
68;64;52;52
72;95;95;95
79;64;72;88
86;92;94;92
86;84;86;72
64;64;52;44
64;95;71;63
48;64;68;80
68;64;64;64
64;78;78;76
90;90;95;84
80;68;78;68
76;95;95;95
109;109;111;95
86;95;111;108
100;108;119;111
119;124;118;96
88;92;110;117
119;72;72;84
111;104;88;88
92;88;80;68
80;111;95;95
87;68;79;64
68;92;88;92
80;64;52;64
76;80;64;64
64;64;64;64
68;68;82;84
95;63;58;44
64;95;95;88
64;68;64;64
68;64;68;84
95;79;48;64
95;87;68;56
64;64;64;64
68;78;80;72
64;95;79;52
76;84;84;95
95;71;68;64
84;102;95;87
95;111;111;111
100;88;92;102
111;110;96;80
64;72;94;111
111;79;78;64
80;84;88;102
111;64;64;80
94;103;102;111
95;64;68;64
84;100;111;95
70;68;110;111
87;95;95;93
76;72;88;96
92;76;76;72
80;95;111;95
64;72;94;106
103;92;96;96
108;111;106;88
80;88;111;111
111;119;102;92
84;92;111;95
64;80;100;111
95;64;68;80
102;100;100;100
94;92;92;100
88;100;111;111
111;111;119;125
123;127;127;127
127;127;124;104
96;108;122;127
119;84;80;96
104;122;127;95
76;84;84;96
104;102;100;92
92;96;111;111
108;100;100;92
88;94;72;64
68;95;109;103
95;74;79;87
109;111;104;100
92;80;76;80
96;102;103;92
68;64;64;64
64;95;95;95
70;64;80;92
103;111;111;111
103;95;111;95
72;84;100;104
96;96;111;111
111;84;93;92
84;100;76;95
84;84;86;92
84;87;84;84
84;84;80;76
87;72;76;87
76;84;87;76
87;80;79;84
64;95;103;80
68;103;71;64
80;80;84;95
94;80;80;80
95;84;72;84
88;76;64;52
76;92;95;95
76;68;64;72
95;95;95;79
79;64;64;80
84;109;68;64
68;84;95;111
95;64;64;80
88;95;95;95
85;111;119;95
68;80;111;95
68;80;80;92
92;94;106;111
95;79;95;95
87;68;68;76
100;100;94;106
111;87;68;68
64;84;88;92
111;76;95;95
76;80;108;108
111;111;119;111
95;92;72;84
88;92;111;95
95;68;80;88
84;88;84;84
86;80;84;88
103;95;100;92
92;100;94;80
72;64;76;92
95;102;110;109
92;80;72;68
76;88;95;103
111;79;64;64
64;100;110;108
100;104;111;103
109;111;100;84
80;88;108;110
96;80;68;76
92;103;94;92
88;88;84;94
102;94;102;96
80;68;80;80
72;68;68;84
88;86;72;64
84;95;86;64
64;80;88;95
103;79;52;64
92;95;95;95
79;77;95;103
80;72;80;76
68;76;95;95
76;64;80;103
95;75;95;111
111;86;68;64
80;100;108;111
79;64;72;84
111;64;76;109
95;87;70;64
72;80;94;108
111;75;64;80
84;72;80;103
95;95;111;111
111;79;64;80
119;64;76;88
108;95;87;95
103;111;104;88
80;76;108;111
95;72;92;111
111;111;96;84
96;111;96;76
68;95;96;80
72;72;80;88
111;52;68;95
103;103;100;92
84;68;72;88
101;95;71;64
80;87;64;68
92;95;76;64
64;64;64;68
68;84;68;64
64;52;52;56
64;84;87;94
95;95;95;79
64;80;94;106
111;110;96;80
80;84;94;111
103;84;80;88
94;76;68;68
72;92;95;102
103;109;111;111
95;72;100;88
68;64;64;80
100;103;103;111
111;100;80;64
64;68;76;84
80;95;95;52
68;76;103;95
95;103;84;64
68;111;79;68
84;94;102;101
96;110;100;100
111;111;111;108
96;111;111;95
72;104;119;95
76;76;96;108
119;111;76;68
92;111;64;80
119;95;72;68
88;111;111;102
88;68;80;88
108;79;79;70
68;111;95;64
84;88;100;109
111;111;79;64
80;111;71;64
88;111;111;111
109;84;68;64
72;108;87;64
64;72;92;103
103;92;72;64
80;95;95;69
64;64;76;94
95;79;95;79
68;64;64;76
64;72;86;95
92;84;80;80
80;80;95;69
64;84;76;72
68;76;95;95
79;52;64;64
100;48;72;80
76;76;72;76
84;95;63;54
48;72;95;79
52;64;84;95
95;52;64;72
80;92;80;84
84;72;64;64
88;48;48;72
95;87;79;66
52;72;86;95
94;80;64;64
72;84;88;95
95;87;95;95
79;64;64;84
111;95;79;68
72;84;111;79
64;72;88;84
108;95;103;111
95;68;119;76
68;88;111;68
72;96;84;76
68;80;107;103
111;103;88;76
72;80;108;103
103;111;87;68
88;92;111;111
108;84;76;64
64;64;84;92
76;76;80;84
84;86;95;95
95;87;64;64
88;95;95;109
111;111;100;92
104;96;100;108
111;100;88;72
76;102;95;64
72;80;106;103
111;95;111;111
92;84;92;88
108;79;64;68
76;76;80;84
88;92;95;95
102;88;76;94
109;52;80;95
100;103;111;95
64;64;84;100
96;94;92;92
92;108;111;111
111;76;64;64
80;88;86;94
84;80;80;86
103;68;76;95
103;88;64;64
80;103;111;103
94;92;94;96
100;100;92;84
92;92;109;111
111;111;111;96
84;84;100;94
100;95;64;72
94;88;72;68
84;95;87;79
64;64;72;76
94;103;95;95
103;111;111;108
84;96;119;79
72;110;111;110
88;88;92;84
72;92;103;102
92;111;111;103
95;68;92;108
104;111;103;95
68;80;100;111
119;111;118;104
96;116;111;87
76;80;92;84
76;80;72;72
88;95;68;64
102;102;111;111
79;64;88;92
92;84;88;88
100;103;100;111
111;111;95;111
119;110;96;88
88;116;111;68
88;102;104;108
100;84;84;100
111;68;64;84
88;94;100;92
96;111;111;102
92;80;64;64
64;76;95;95
103;94;80;72
92;109;100;88
92;84;72;64
64;64;72;95
95;95;107;111
111;110;92;92
84;68;64;72
111;69;64;76
84;80;84;84
92;90;84;88
95;95;79;56
64;92;95;79
64;64;80;94
103;111;111;111
111;119;104;100
100;104;111;119
119;110;96;84
96;119;119;127
124;100;80;72
72;80;100;102
111;108;96;92
92;108;102;111
111;100;84;96
100;111;104;88
84;96;111;95
103;111;96;76
68;68;96;111
95;64;64;64
64;84;103;103
103;72;111;69
64;80;111;87
64;68;100;111
111;111;119;119
103;76;72;88
110;116;125;111
103;72;88;84
84;92;108;100
92;102;92;100
104;102;96;111
111;64;84;108
111;95;87;76
68;68;80;84
84;72;84;84
100;103;108;103
92;88;96;111
111;111;108;108
96;88;104;111
119;76;76;96
118;111;96;76
68;88;104;106
88;68;68;76
94;52;64;80
109;69;52;52
72;80;95;79
64;64;72;76
80;88;76;94
95;95;76;64
71;69;71;56
64;52;52;52
48;64;72;90
84;86;76;64
68;95;95;95
92;88;95;103
111;111;100;76
64;68;80;92
103;109;100;102
100;111;95;79
64;80;96;102
96;109;108;119
111;68;72;72
88;111;111;111
119;119;100;88
88;100;108;104
84;72;76;88
111;79;64;68
84;111;103;95
95;111;84;68
68;84;100;108
110;84;64;68
80;95;64;64
84;86;76;80
92;95;95;95
110;80;68;76
70;64;68;100
103;111;111;95
64;80;84;84
108;104;84;72
76;109;110;111
104;88;88;102
96;104;92;92
102;111;87;64
88;95;64;72
105;107;100;100
102;111;108;96
84;80;80;72
64;72;88;95
95;87;79;79
64;84;92;100
88;68;64;72
80;95;52;64
86;79;64;80
95;79;75;77
54;68;84;103
95;95;79;68
64;88;88;80
76;92;84;92
95;103;103;80
64;64;64;64
68;76;80;86
76;95;95;95
102;103;100;92
84;111;111;111
111;95;94;68
92;108;111;104
88;76;72;76
96;87;68;64
64;84;76;80
102;95;92;80
84;72;64;76
95;48;64;86
95;95;56;64
84;95;84;88
102;95;75;64
64;96;111;79
64;64;76;88
103;77;64;72
68;72;64;72
84;79;71;48
64;76;95;95
86;88;72;68
80;95;61;64
84;95;80;68
88;95;63;56
52;68;92;95
95;95;95;111
111;111;108;92
80;84;88;111
109;111;111;111
111;127;127;119
126;108;96;100
108;127;127;119
127;108;108;127
95;80;96;104
126;127;119;111
95;80;116;127
111;80;96;104
108;127;95;76
108;93;72;84
111;95;64;88
84;88;88;94
92;92;72;64
52;72;88;95
87;52;84;84
80;94;88;80
92;95;76;76
76;95;95;95
108;95;64;64
72;111;95;64
64;72;72;76
84;80;92;80
76;64;64;64
93;60;48;76
95;63;48;68
68;68;68;84
95;95;95;111
79;64;88;103
108;110;104;80
64;64;64;80
92;80;64;64
64;84;95;79
56;52;64;88
92;80;76;84
76;95;95;95
95;95;110;104
88;88;100;80
68;64;56;52
72;95;95;95
100;103;88;80
68;64;56;52
68;95;95;95
109;103;108;111
119;111;108;104
100;96;102;119
119;119;103;109
90;80;108;127
111;103;109;95
95;88;76;88
111;119;124;125
116;100;112;126
127;119;88;76
76;88;111;110
110;111;124;127
111;76;100;127
87;76;80;84
117;111;111;84
72;80;108;119
100;80;84;96
111;111;119;111
95;87;86;93
95;87;84;82
68;80;96;111
111;111;119;108
125;127;93;87
87;78;78;79
68;92;111;111
110;111;92;88
108;119;95;68
88;95;87;76
68;80;108;111
111;64;108;111
79;64;68;76
96;111;95;64
80;108;108;96
88;96;102;94
84;84;76;95
109;95;111;100
72;64;86;111
111;111;111;119
114;121;108;104
96;88;88;119
111;111;95;72
96;111;68;80
100;111;95;68
80;102;100;102
111;111;102;80
72;80;100;109
102;80;64;64
84;92;72;64
64;64;64;68
92;79;52;48
64;64;68;64
64;64;40;40
48;48;52;52
56;79;79;87
87;79;95;68
56;60;48;64
80;72;64;72
68;68;68;80
95;79;79;77
52;56;52;64
72;68;90;95
94;103;103;94
94;92;68;64
64;80;84;92
95;69;64;103
95;95;87;93
87;79;68;68
92;103;92;92
100;94;72;64
64;64;68;80
95;80;68;68
80;95;95;84
72;64;52;54
52;95;71;48
68;64;64;48
64;86;95;71
48;72;68;68
64;68;78;87
84;64;48;44
40;52;64;78
95;95;79;60
64;84;72;72
72;95;95;87
52;103;95;92
94;107;110;108
88;72;80;96
108;100;94;108
111;70;72;102
111;111;111;103
68;111;111;119
119;111;111;111
127;116;84;80
80;96;119;72
80;110;111;103
79;76;88;96
102;111;95;68
80;84;104;111
87;94;70;64
80;80;76;92
94;92;76;76
80;76;80;80
68;88;95;84
68;64;68;72
64;95;95;95
103;88;68;64
64;88;88;92
95;52;68;80
88;95;95;92
102;103;86;72
64;68;95;95
95;79;71;64
64;72;80;76
88;103;95;79
87;95;109;80
64;64;64;88
108;79;79;95
111;111;111;96
88;96;92;84
88;100;92;108
111;95;87;64
76;108;92;72
64;64;64;84
80;103;95;79
52;92;88;76
64;54;52;68
76;95;87;76
52;68;88;94
84;95;84;64
54;48;64;68
84;95;95;87
95;95;111;87
64;108;111;111
117;111;95;84
84;118;127;125
124;116;108;96
96;96;108;119
111;93;82;76
80;110;111;110
116;119;119;111
109;76;88;110
124;108;88;80
80;119;119;109
90;72;88;104
119;111;119;100
88;84;102;119
95;103;119;103
95;72;84;124
119;125;119;112
127;127;124;100
100;122;96;96
100;124;119;111
80;124;122;108
96;80;68;70
64;108;111;95
103;95;84;72
72;102;100;96
117;95;64;84
88;108;100;100
100;111;111;108
96;119;110;100
80;72;68;68
84;100;84;95
107;111;95;78
64;111;111;79
68;76;94;102
108;104;84;80
102;111;102;100
92;92;80;64
72;84;92;95
80;94;88;103
109;95;87;87
87;79;103;96
80;76;84;95
88;111;100;76
64;64;64;68
88;95;56;64
92;103;103;103
92;80;84;95
76;64;68;92
111;95;68;64
68;68;64;103
87;95;95;100
84;68;68;79
64;84;111;79
64;80;110;111
95;84;109;95
76;64;72;96
95;72;68;94
100;108;106;111
108;111;92;88
96;111;111;111
119;108;80;68
68;72;84;100
108;100;84;76
84;111;79;64
76;92;84;72
64;52;63;68
56;52;64;76
94;95;87;79
56;64;84;101
103;109;108;92
88;84;80;111
111;95;64;84
104;92;76;72
80;88;76;80
72;76;78;94
95;63;52;72
92;95;63;52
72;95;95;103
102;108;94;88
76;64;64;68
72;95;95;95
95;95;111;111
100;96;92;108
111;76;76;104
111;111;111;100
100;111;118;108
100;100;80;72
102;79;64;72
80;111;110;103
100;88;68;68
76;109;111;111
111;119;119;119
116;108;96;80
76;70;95;94
72;87;95;95
95;68;68;102
109;111;111;110
92;80;72;84
84;92;80;76
92;95;79;64
64;96;84;92
88;88;80;80
68;80;92;95
94;103;95;87
95;87;87;87
87;64;84;92
100;111;96;84
92;102;103;92
72;72;64;64
84;95;95;103
84;80;68;64
72;94;95;102
103;88;72;80
92;95;88;92
88;94;72;64
80;103;95;95
87;64;68;94
108;111;78;68
64;64;84;111
76;76;108;108
119;103;95;118
116;119;108;96
96;108;110;119
104;80;72;80
92;110;96;111
110;118;119;79
80;100;111;119
119;93;92;84
76;72;84;108
111;64;96;108
102;111;84;80
76;72;76;80
84;103;94;92
88;100;100;106
92;84;72;84
108;95;103;111
111;111;95;78
76;80;100;111
110;108;110;108
111;117;100;88
84;92;92;84
88;103;70;64
92;78;64;92
95;102;111;111
111;111;119;100
100;100;96;80
84;111;104;96
94;84;76;64
64;80;84;92
84;68;64;78
84;95;95;95
79;64;64;68
84;92;84;84
92;103;109;111
111;111;79;64
80;84;80;92
108;111;103;88
80;72;92;103
92;108;92;84
92;95;64;76
92;111;103;111
111;108;100;108
119;110;88;96
104;111;76;72
100;111;64;76
92;111;111;108
80;80;76;80
80;72;94;111
95;100;72;64
79;95;79;70
64;68;80;84
68;64;52;68
95;79;48;68
80;72;68;64
64;76;90;94
86;68;48;64
94;87;95;94
92;111;111;92
72;80;76;68
92;95;88;84
88;79;52;80
95;102;95;88
76;72;84;95
103;87;64;72
108;87;64;76
100;95;87;87
64;76;92;108
111;111;95;68
72;96;96;96
94;104;108;106
111;108;96;92
92;108;106;108
96;119;111;103
109;95;111;127
127;127;127;118
100;84;80;88
100;111;68;80
92;96;92;84
88;110;103;79
64;80;88;92
94;94;84;84
94;95;64;64
92;111;70;64
84;108;111;95
95;92;86;92
90;84;102;76
103;76;95;111
119;104;80;80
80;86;80;72
68;64;64;68
88;95;79;71
60;48;68;95
95;94;76;76
84;84;95;95
88;76;72;95
103;79;64;84
95;92;72;64
80;87;52;64
92;103;92;72
72;95;95;61
72;94;84;72
76;94;92;95
111;64;72;100
111;95;79;87
76;64;72;100
103;84;68;77
103;110;103;70
64;64;68;72
92;101;103;111
111;95;95;111
119;119;96;80
76;68;84;103
104;108;92;80
80;84;103;111
95;68;64;80
100;111;111;108
116;117;104;100
96;100;104;100
84;92;111;95
87;64;84;100
111;111;92;80
88;111;111;111
87;68;64;64
76;111;87;64
92;111;106;92
84;100;102;108
111;87;64;76
100;95;79;68
68;102;103;111
95;64;76;76
84;80;68;64
52;54;60;60
68;93;64;64
71;95;95;94
76;64;64;64
84;95;95;95
87;76;64;68
92;108;108;92
84;68;68;79
87;95;95;73
64;88;108;111
111;111;111;110
118;111;72;96
116;111;95;87
72;80;76;88
119;74;72;88
102;103;84;72
64;76;92;103
103;102;92;76
72;72;76;103
79;64;76;76
72;95;95;79
52;64;68;72
76;95;95;95
52;88;95;92
88;109;95;79
64;80;94;102
108;95;64;64
64;80;76;72
88;95;79;56
64;76;84;95
95;103;108;94
76;80;76;72
80;95;95;71
64;94;103;109
102;103;92;80
80;100;100;100
100;95;79;64
64;64;64;64
100;87;60;60
52;64;56;48
56;76;95;95
95;52;64;84
80;84;95;70
64;76;84;95
88;72;64;62
78;79;77;87
79;56;64;72
92;95;56;64
88;102;95;84
64;68;80;84
80;76;64;64
64;78;87;95
95;94;88;88
86;88;84;92
88;64;87;72
68;95;76;64
52;64;84;84
95;95;95;64
64;64;76;84
72;68;64;64
64;87;95;95
95;68;64;52
64;84;92;95
92;76;64;64
103;95;65;52
68;68;48;52
84;95;87;95
94;68;64;56
79;84;64;95
76;64;64;64
68;84;95;95
87;93;79;76
52;92;111;111
111;87;64;72
88;108;92;72
68;64;64;68
84;95;95;95
87;64;64;64
64;80;76;76
68;78;52;48
44;64;64;64
52;48;64;87
93;95;95;94
84;72;52;48
64;64;64;64
68;72;72;70
64;64;68;64
64;86;78;64
64;84;95;79
52;52;52;60
60;77;79;95
95;72;64;95
103;111;92;68
64;68;64;64
72;76;68;64
76;94;95;79
52;64;68;94
95;95;52;72
110;66;64;72
103;95;79;64
88;100;103;106
111;111;111;96
88;116;87;68
88;108;111;111
111;124;127;127
127;116;88;84
80;76;84;88
92;108;102;88
96;111;111;111
119;100;92;84
100;118;117;110
96;80;84;80
94;111;95;79
64;92;111;79
64;72;94;100
88;100;94;96
111;111;95;87
95;103;95;84
72;100;119;95
68;84;100;108
104;119;119;125
125;125;127;111
80;96;125;127
127;127;127;127
119;127;127;135
108;100;96;96
104;111;72;68
72;92;96;92
88;72;72;76
88;95;71;52
64;95;95;95
76;64;64;52
64;95;95;95
95;79;109;109
117;95;79;68
72;80;72;68
68;72;80;76
64;52;48;44
64;80;80;89
87;64;48;46
40;56;64;72
82;72;92;87
94;95;109;108
110;100;84;80
88;100;109;111
111;95;74;64
84;111;111;104
104;110;111;77
80;116;95;95
111;111;119;92
86;119;104;84
92;92;100;110
111;125;119;78
76;104;125;125
125;127;119;104
96;100;127;79
80;84;100;96
96;108;119;111
95;68;84;104
100;111;119;111
108;111;96;80
80;108;111;110
84;68;76;87
95;87;64;84
110;111;111;111
72;96;111;95
95;119;114;104
104;118;100;84
88;100;119;103
79;64;72;84
100;111;87;72
84;76;64;60
64;80;95;79
60;64;88;103
95;64;64;68
84;84;95;103
109;111;87;64
84;100;100;76
64;64;64;65
68;56;64;80
92;80;64;64
76;95;46;64
68;95;79;48
72;79;52;64
86;79;56;48
52;64;86;95
95;95;94;84
80;95;88;68
80;95;80;76
84;95;60;64
102;63;64;72
84;95;95;101
88;80;76;76
76;95;60;52
72;92;95;87
79;71;60;56
56;64;52;64
76;95;71;52
72;95;60;52
64;72;95;92
76;94;95;95
60;76;76;86
80;86;84;76
64;76;64;48
48;52;48;68
92;63;64;95
95;60;48;64
72;95;79;48
72;95;95;95
87;64;64;72
76;92;103;103
107;94;84;96
108;102;80;68
64;64;64;54
52;64;76;80
68;72;68;68
84;95;71;71
48;76;86;78
68;52;64;72
76;78;93;93
95;95;95;103
95;64;72;80
102;95;64;64
88;111;95;76
64;92;103;88
84;109;68;76
103;111;111;95
68;80;111;111
111;100;88;88
96;111;111;106
102;119;119;119
118;116;108;96
100;111;119;95
76;116;119;124
108;100;88;72
72;88;111;68
80;100;111;111
111;95;72;68
88;96;111;111
110;102;119;111
111;119;127;118
100;127;127;127
120;100;92;104
124;127;92;80
96;108;96;108
127;68;84;104
111;117;117;108
110;119;127;111
95;76;96;126
127;80;80;92
110;116;108;108
125;68;80;110
111;111;119;111
127;127;127;127
127;127;127;135
127;95;80;80
116;127;124;127
124;127;111;84
84;96;100;119
127;72;80;96
104;111;111;108
111;110;87;79
68;84;102;111
111;68;68;88
100;111;111;95
95;72;80;80
88;111;111;108
88;76;64;64
68;76;76;80
95;95;84;72
84;95;103;103
92;76;80;84
84;95;103;95
84;94;111;78
64;84;108;111
95;64;64;72
100;103;100;92
100;95;64;76
110;95;93;77
64;68;88;92
111;95;111;111
110;96;119;119
127;126;127;127
127;116;108;108
112;124;116;108
116;116;122;127
127;120;92;95
119;80;80;88
102;114;126;111
72;80;84;92
100;119;119;117
110;104;100;104
106;96;88;80
88;100;100;100
84;88;72;64
64;64;64;72
76;86;68;64
72;86;64;48
44;48;56;64
64;48;44;64
64;76;64;52
64;64;64;64
64;78;87;93
86;68;64;68
88;95;95;79
71;64;52;64
84;95;95;80
80;88;95;79
52;68;95;95
95;64;64;68
94;95;95;95
103;111;102;96
88;92;111;111
87;84;100;111
111;111;117;108
108;127;78;84
108;102;108;111
117;119;127;111
92;80;84;108
111;76;72;72
92;100;92;88
88;92;103;102
96;111;111;111
108;100;96;88
80;84;84;102
102;108;111;103
79;72;64;84
104;71;64;64
72;88;109;110
108;111;111;119
119;127;111;127
127;111;80;96
124;124;127;127
104;84;109;127
126;127;78;100
127;76;88;96
100;119;119;127
127;118;108;100
104;116;126;127
118;124;127;127
112;126;122;108
96;96;104;102
100;118;111;100
116;118;119;100
88;80;76;92
106;95;79;68
64;64;64;72
80;76;76;64
52;64;86;95
48;68;72;84
95;71;48;68
94;71;54;64
68;92;95;79
48;72;86;92
92;103;95;103
92;96;103;111
95;111;110;116
110;117;127;119
125;100;88;96
100;111;111;119
125;126;127;127
124;110;104;108
112;111;76;80
110;111;82;85
72;80;96;111
111;111;76;72
110;95;68;72
84;80;94;110
96;92;88;76
72;88;111;109
96;108;100;100
119;68;72;80
88;92;102;102
92;111;103;95
95;64;80;88
111;64;68;84
102;92;76;68
64;56;64;64
84;95;92;90
84;76;80;94
92;76;80;88
95;60;52;84
103;95;95;111
111;64;68;68
71;79;79;64
76;84;109;111
95;73;64;72
100;95;79;87
87;64;80;94
111;79;86;103
111;102;100;88
80;88;102;100
96;111;103;95
87;80;88;100
102;100;92;96
110;111;111;111
111;100;108;126
95;84;84;104
118;119;100;96
100;92;88;100
96;100;92;80
76;72;68;76
68;76;68;64
52;48;40;48
68;76;64;64
48;48;56;93
71;79;87;63
48;76;92;86
76;64;48;52
40;72;95;79
71;52;72;80
88;95;95;95
111;100;76;85
109;111;95;78
68;80;100;111
87;64;64;80
94;103;106;108
96;88;84;84
88;103;109;111
111;111;95;70
68;84;108;111
95;64;64;88
111;111;110;111
100;108;119;125
125;116;84;93
95;80;88;104
119;111;111;111
111;76;72;88
104;92;72;64
64;72;88;95
84;68;80;84
84;92;95;95
84;76;76;86
103;109;95;95
95;64;76;103
109;111;103;111
92;76;79;87
72;80;111;111
111;119;100;96
108;111;78;72
68;92;102;111
111;68;68;80
84;94;92;106
102;79;64;72
84;88;88;92
76;76;88;86
84;72;68;76
95;79;61;64
84;95;95;103
103;84;72;68
72;72;80;94
103;93;95;109
84;72;80;84
80;84;103;111
95;64;76;84
84;92;102;111
111;108;96;110
111;95;84;68
92;108;103;95
111;111;127;119
95;76;80;76
96;119;119;110
88;84;80;84
92;94;108;111
102;102;110;119
119;116;96;80
80;80;84;111
111;79;64;72
80;103;108;108
110;111;111;79
80;106;119;87
68;96;119;103
84;80;100;111
119;125;111;84
76;88;110;119
119;127;95;84
124;127;124;100
84;111;116;88
92;100;100;100
118;108;96;96
104;118;116;100
88;96;111;111
108;100;96;100
117;111;93;68
80;88;92;96
111;64;76;108
111;95;87;64
92;102;110;110
104;100;110;111
68;100;87;64
80;100;111;111
111;84;72;68
64;76;92;100
108;75;64;96
111;64;64;64
64;64;64;76
94;84;64;52
64;84;95;79
71;64;84;84
88;95;95;95
68;64;80;100
87;56;64;72
88;84;86;92
92;94;108;103
84;80;92;80
80;84;92;103
103;77;64;76
111;95;111;111
100;88;80;88
106;111;111;79
68;110;110;96
84;84;80;88
106;66;72;94
96;84;76;84
109;95;95;87
64;72;68;64
64;64;68;68
72;64;76;95
79;93;76;64
79;52;64;64
68;76;80;84
95;48;64;72
94;95;92;88
84;76;76;94
95;80;64;60
52;72;84;95
77;52;68;76
84;76;94;95
95;95;111;103
79;64;84;106
111;111;95;93
103;72;76;68
88;80;76;80
102;79;64;84
100;95;107;111
110;92;92;92
80;96;109;111
79;68;88;102
111;76;64;76
94;79;64;72
84;64;72;76
80;95;95;95
76;64;79;95
76;84;111;109
106;92;80;88
106;95;78;64
64;76;84;84
80;76;76;92
92;93;103;95
56;64;72;76
80;64;64;64
76;92;95;95
95;76;68;76
80;84;93;95
95;95;111;111
119;111;95;78
76;72;100;111
64;80;92;111
111;111;119;111
68;84;100;104
117;111;95;84
72;80;96;111
111;95;64;96
108;119;111;95
72;80;100;104
119;103;103;95
103;95;119;100
80;76;68;80
80;84;84;84
100;95;95;111
111;111;111;111
119;118;119;87
80;76;80;72
80;111;111;111
95;68;72;92
100;111;111;111
87;80;118;111
72;96;119;95
76;80;110;118
119;119;127;95
76;96;111;111
100;100;119;119
68;100;118;111
92;92;104;119
119;111;96;100
125;95;72;80
104;119;119;119
127;84;76;80
100;110;102;84
72;72;79;64
88;111;92;76
72;100;111;95
87;78;64;72
104;111;108;110
96;76;64;64
80;92;95;95
87;64;88;96
111;111;76;64
72;68;80;100
103;111;111;102
92;72;64;80
103;111;109;111
119;95;78;68
92;111;79;68
80;106;111;95
68;68;80;84
76;64;64;68
72;95;95;79
56;64;84;95
111;79;95;111
111;95;103;87
76;68;76;92
108;111;108;92
84;92;111;103
64;80;102;100
96;111;111;93
78;64;80;92
108;76;64;72
108;102;100;111
95;68;102;111
111;111;96;88
88;104;84;68
64;68;76;84
86;103;95;79
64;80;103;95
71;64;64;68
76;95;95;103
111;111;111;87
64;84;96;111
110;119;111;111
111;103;111;122
104;96;84;96
108;111;95;68
104;111;86;78
84;84;111;119
104;80;79;68
72;88;108;111
93;64;80;92
106;111;111;111
124;127;124;108
112;127;111;84
80;104;111;78
72;80;68;64
80;111;64;64
76;76;80;92
86;84;90;95
110;95;95;93
110;95;95;84
72;76;102;111
103;76;96;111
111;111;119;123
116;96;88;92
96;92;108;111
102;110;111;109
95;111;119;111
103;86;76;84
111;119;111;100
88;92;88;108
108;111;119;100
80;84;119;87
76;88;111;95
72;80;76;76
88;111;95;111
111;111;111;100
100;104;100;96
100;100;108;118
108;88;88;92
100;100;84;84
72;72;68;76
92;79;95;79
64;64;64;72
103;60;52;64
72;84;86;84
72;72;95;79
54;64;76;86
95;66;60;64
80;103;95;71
64;108;60;64
76;86;95;103
103;107;92;92
80;80;92;94
92;111;111;87
64;72;88;88
100;95;111;106
92;72;72;94
108;79;64;76
111;64;64;76
95;79;56;64
88;95;103;95
68;64;68;86
88;72;52;52
64;68;76;95
79;48;72;95
95;79;95;92
68;77;95;108
100;84;80;80
76;86;92;80
76;80;103;95
95;95;93;64
84;111;111;111
108;84;70;79
87;111;104;96
80;68;64;72
72;88;103;95
95;64;68;92
103;95;111;95
64;80;110;111
104;108;100;84
76;72;76;72
80;95;103;84
68;64;68;76
80;95;95;103
95;64;96;95
64;64;76;102
94;100;88;84
84;76;84;95
94;72;64;95
72;64;95;95
52;68;88;95
76;72;80;88
94;103;95;78
64;96;95;71
64;64;72;86
102;87;65;64
72;72;64;76
95;63;60;60
48;48;64;84
95;71;79;79
52;64;80;95
95;52;64;92
95;76;52;64
88;79;52;56
48;64;80;92
88;95;95;52
68;72;92;95
95;95;111;111
95;64;84;100
104;95;77;72
64;72;100;111
103;79;87;87
74;68;92;102
103;111;111;87
64;80;80;84
80;72;103;95
64;76;111;95
79;87;111;108
100;92;80;72
64;68;84;88
95;84;68;68
76;95;95;95
109;79;64;72
111;64;64;72
88;101;103;108
111;70;64;76
84;92;96;102
111;79;95;111
111;111;95;68
96;109;95;72
72;96;96;111
111;95;111;111
119;111;100;104
102;118;127;90
72;100;124;95
72;108;119;95
72;76;100;111
95;94;95;95
95;84;68;88
100;119;111;103
76;88;111;111
95;80;119;111
72;76;72;88
108;87;78;79
64;76;110;95
64;88;103;100
84;68;64;64
72;95;103;95
95;64;64;84
100;111;102;92
76;64;72;88
76;92;95;103
87;64;64;92
95;68;64;92
95;64;64;72
92;95;87;95
111;64;80;110
100;92;76;64
68;68;72;76
92;95;56;52
64;68;64;64
80;82;80;76
68;64;48;40
48;48;64;78
92;94;92;84
95;95;76;56
56;48;68;95
95;48;84;92
95;80;68;64
64;64;93;77
48;48;48;64
95;50;48;60
55;44;64;68
95;61;48;48
48;64;64;64
64;68;87;63
48;68;84;90
95;48;64;76
86;95;92;84
72;86;92;80
76;68;64;52
52;44;52;64
68;64;72;72
86;71;44;40
64;76;84;90
68;64;68;92
95;95;95;87
64;64;76;92
94;103;103;92
80;92;94;92
80;64;72;92
95;95;95;84
88;95;64;64
84;111;71;64
64;64;94;86
84;95;103;95
68;64;52;68
92;95;84;68
68;64;48;48
64;64;64;64
70;72;87;79
60;44;64;68
92;79;48;52
68;94;95;48
64;72;72;64
72;64;76;94
95;95;95;95
111;95;79;78
87;79;64;68
92;95;95;111
111;103;95;87
84;68;92;100
119;64;84;108
119;95;94;92
68;72;92;111
86;80;111;87
64;68;64;76
103;95;95;95
79;64;94;100
111;87;64;76
96;111;95;79
72;111;95;64
76;88;100;103
111;95;110;84
68;76;111;95
68;68;92;111
93;64;68;84
108;111;102;100
111;111;111;95
95;86;84;72
76;96;100;100
92;111;111;111
119;111;103;76
80;104;119;119
116;96;96;96
102;119;104;102
111;111;110;102
108;100;80;84
118;95;95;111
100;116;110;104
110;127;127;127
95;80;80;76
116;85;92;116
125;95;72;72
92;111;64;64
76;111;98;80
72;64;64;68
92;77;64;72
94;95;79;60
64;95;111;111
111;78;64;88
109;111;111;96
72;87;111;100
84;72;68;68
80;80;72;76
84;103;95;103
103;111;111;111
119;111;95;76
80;100;111;119
103;76;76;68
88;96;100;100
110;103;95;68
68;64;64;72
92;109;95;95
108;84;68;64
64;80;100;109
111;111;92;72
64;88;108;111
111;78;64;76
96;111;95;68
64;80;100;110
111;93;103;111
102;100;116;95
68;84;116;95
70;72;108;111
72;72;92;96
100;111;111;111
95;68;96;119
79;88;111;111
111;72;96;110
119;68;72;96
111;64;68;84
111;95;87;95
111;111;96;92
96;102;92;84
80;80;111;92
68;64;71;70
64;84;92;92
100;111;95;95
111;111;80;68
64;76;96;111
87;64;100;111
111;88;68;64
64;68;94;103
94;92;80;80
92;109;108;111
111;95;111;111
111;76;88;96
108;111;111;85
72;84;96;106
119;111;119;119
118;100;84;80
96;111;111;79
72;78;86;68
80;108;111;111
95;68;88;108
111;111;119;95
72;88;127;68
72;88;111;103
104;80;76;92
111;95;64;72
80;72;72;72
72;76;86;94
95;60;64;76
94;94;80;100
95;79;79;95
111;95;79;64
72;84;100;111
95;64;76;92
102;108;111;111
95;68;92;111
119;111;104;108
127;76;72;100
111;68;72;92
119;93;93;95
95;84;87;79
72;100;95;64
100;73;68;84
76;64;68;80
95;48;76;95
79;48;68;92
95;71;48;68
86;92;88;95
102;95;94;94
108;95;79;68
68;88;84;92
104;76;56;68
94;95;95;72
64;79;103;80
64;52;64;72
88;95;63;52
102;60;64;84
95;95;60;52
68;92;95;103
111;64;64;80
111;64;68;76
72;72;68;64
72;88;95;95
95;86;64;64
68;86;95;79
56;64;94;95
87;64;64;76
84;72;64;72
76;76;64;72
84;72;64;52
84;79;44;52
88;71;44;64
84;95;95;95
94;88;92;92
100;109;108;92
80;64;64;64
64;84;84;72
64;64;64;68
72;94;80;64
64;64;64;64
64;86;80;95
94;76;64;48
64;80;68;68
72;95;95;95
95;87;109;96
72;72;80;111
108;76;64;72
94;77;64;94
95;109;111;104
96;102;100;96
92;100;94;96
111;95;64;72
104;87;64;68
84;111;111;95
95;68;72;84
104;95;64;68
96;111;64;64
80;72;68;68
84;95;88;72
64;64;52;68
95;62;58;48
64;84;90;95
95;95;92;68
68;72;64;68
80;92;95;95
76;64;93;64
64;60;52;64
72;95;79;60
52;48;64;68
84;87;68;52
71;44;52;68
84;95;79;44
68;95;95;95
95;76;64;64
72;84;84;84
76;95;95;60
76;103;103;79
70;78;103;84
64;64;68;76
92;103;95;111
111;111;119;111
111;78;78;93
111;119;108;96
80;76;68;76
84;103;111;111
119;111;100;84
80;76;72;88
100;92;80;84
95;95;79;64
80;84;80;84
88;95;94;76
76;80;80;76
72;78;94;90
76;72;76;92
95;54;64;76
86;95;79;70
52;64;84;88
103;68;64;68
84;86;76;68
64;76;68;64
68;76;68;64
84;87;60;44
64;95;60;48
68;92;92;95
103;95;102;94
88;80;68;64
76;95;95;79
56;64;68;64
64;64;94;95
87;56;60;64
79;95;76;64
72;72;76;95
80;90;86;92
84;88;95;92
72;68;68;92
95;95;52;72
95;92;76;52
52;52;52;87
95;95;95;95
72;64;52;64
84;87;95;95
103;103;80;64
64;80;76;92
103;95;79;87
87;95;92;64
64;80;84;80
76;76;80;92
95;95;64;64
72;76;92;92
103;95;79;64
80;111;111;111
111;95;119;102
102;104;92;88
100;111;111;125
111;95;103;111
125;104;100;104
100;102;111;117
108;100;110;110
96;84;68;76
84;98;111;79
70;66;64;88
111;111;95;64
84;84;88;92
111;95;64;84
106;95;95;87
68;84;111;111
111;111;108;100
88;84;96;96
84;80;68;64
84;103;94;72
72;95;95;70
64;64;86;95
64;56;76;92
101;103;84;80
94;95;71;64
72;80;94;103
100;100;111;95
76;68;64;84
110;95;111;111
108;92;80;80
88;103;111;95
64;64;64;84
111;79;64;80
100;95;64;68
88;111;111;111
119;111;111;111
119;116;88;80
96;116;111;111
103;119;108;96
96;110;96;96
96;102;88;96
100;111;102;80
64;72;84;84
88;103;87;70
64;64;68;95
95;52;64;76
103;48;80;95
94;109;95;87
74;64;88;111
95;64;80;106
111;100;102;100
100;84;84;88
102;96;76;64
71;77;79;79
79;93;110;92
68;91;108;111
111;111;111;96
84;111;88;72
68;68;64;68
68;64;80;76
80;95;88;68
64;76;78;95
95;95;95;103
95;95;109;111
111;93;76;88
104;108;110;100
100;111;92;84
104;111;87;95
78;64;76;100
111;111;72;64
80;92;84;100
111;79;64;72
96;103;103;104
100;111;111;96
80;68;64;80
100;103;94;72
