## File generated by myo_cap software 
## Available from github.com/ddantas/myo_cap 
## Timestamp: 2020-01-22_13-14-36 
##  
## EMG capture settings 
##  
# sampleRate: 2000 
# channelsPerBoard: 4 
# nBoards: 1 
# bitsPerSample: 12 
# ch1;ch2;ch3;ch4
3311;-3900;-3900;308
207;207;143;128
116;112;112;128
143;103;68;64
72;92;111;111
87;64;72;76
84;94;111;79
71;64;80;96
94;95;71;64
64;68;76;72
78;95;79;52
54;52;68;68
76;90;95;79
63;48;76;82
103;95;62;48
72;103;63;40
52;84;95;79
61;52;64;48
64;87;95;55
46;48;64;68
76;87;79;40
40;48;64;76
76;79;63;32
44;56;72;79
79;36;36;32
36;56;79;79
63;36;36;44
56;68;79;36
34;32;52;70
79;28;32;48
76;63;32;32
40;44;60;64
63;63;24;36
52;64;79;79
47;32;48;72
87;63;32;32
40;64;78;79
55;36;64;72
95;63;40;40
44;56;70;95
55;36;64;78
95;71;48;52
76;92;95;44
64;84;95;87
44;64;68;92
95;79;48;64
94;95;79;64
68;94;103;79
48;68;80;94
95;95;95;63
64;76;82;103
95;48;64;64
68;94;94;87
63;48;68;68
72;87;63;44
40;48;76;86
79;32;48;48
56;64;79;79
47;32;48;64
79;71;34;32
56;70;79;43
32;52;74;79
55;32;36;52
78;79;47;32
48;56;76;63
32;40;64;79
79;35;32;44
64;79;63;32
32;48;64;79
79;79;79;79
63;48;72;95
79;40;52;64
64;86;95;79
63;40;64;76
95;63;40;64
64;64;64;80
95;55;52;84
95;71;48;36
52;80;95;54
40;52;76;95
79;48;40;64
76;95;79;42
48;76;95;54
40;72;95;79
46;64;76;87
95;71;40;64
76;95;79;40
64;76;87;79
47;52;64;87
87;95;50;48
64;68;78;79
63;36;32;32
40;52;68;79
55;32;40;44
64;79;26;20
36;44;54;64
63;22;24;36
40;56;63;47
39;32;48;64
79;43;16;44
64;79;63;36
36;32;32;48
76;63;32;32
32;32;40;40
48;54;77;63
55;32;32;40
56;76;63;28
36;40;64;70
79;79;79;46
47;44;64;68
79;87;61;32
46;36;64;64
64;79;79;55
55;48;94;95
79;48;68;95
95;47;48;64
76;95;71;44
50;40;78;87
87;95;95;63
63;48;64;64
76;87;55;40
44;56;64;72
72;79;63;47
45;32;32;44
64;79;79;46
47;40;64;87
63;32;48;78
79;32;44;64
64;79;39;32
56;79;63;32
48;70;79;47
32;64;79;47
32;52;79;63
32;48;78;79
41;40;64;79
63;32;52;87
79;38;40;72
87;54;40;64
72;79;38;40
64;87;63;40
64;95;59;36
64;93;79;44
64;90;87;63
48;78;95;87
63;64;80;111
95;64;80;106
111;64;72;96
111;71;64;84
111;60;64;88
110;79;64;76
80;103;63;48
76;103;79;48
72;95;62;40
68;95;63;40
64;90;79;52
48;72;95;54
48;76;95;71
40;64;64;92
87;47;40;64
86;63;32;52
64;79;44;32
52;68;79;79
47;32;44;68
87;32;32;36
48;52;60;79
63;32;40;48
70;63;24;36
40;44;58;68
63;63;32;44
52;68;63;55
47;32;40;64
79;79;32;36
64;72;79;47
55;32;48;64
87;79;32;52
64;78;87;95
79;40;64;76
95;95;87;95
95;64;64;72
84;94;95;79
71;64;68;94
111;71;64;64
72;84;95;95
87;48;86;92
95;103;48;64
76;88;95;79
55;48;52;68
92;95;46;36
44;64;68;95
79;36;48;64
64;70;79;44
42;32;48;48
72;63;28;32
32;44;48;48
71;63;16;32
48;62;63;22
24;20;44;64
79;44;24;16
32;36;40;70
63;31;20;16
32;48;60;63
63;20;32;44
76;63;28;32
32;32;36;52
56;78;63;43
47;32;48;64
95;63;32;40
40;44;48;64
87;63;32;40
52;78;55;24
32;54;86;63
63;40;64;64
78;79;36;40
44;36;52;64
64;79;36;32
36;48;68;79
79;36;32;52
64;72;79;79
63;36;44;64
87;95;63;40
44;48;74;93
79;36;32;40
40;40;48;64
79;46;24;32
32;32;40;56
79;63;63;47
47;32;44;68
87;63;32;48
79;79;38;20
32;52;64;74
79;55;20;32
32;32;68;79
63;32;48;72
79;55;63;47
47;32;52;78
87;63;32;40
64;74;87;63
63;32;48;48
68;95;79;36
44;44;64;66
72;87;95;87
63;40;72;76
84;95;95;63
79;64;48;64
84;95;79;52
68;94;95;79
52;64;80;95
54;64;80;95
87;55;48;72
102;95;79;52
64;68;92;87
44;64;76;95
95;63;48;64
86;95;63;44
44;64;90;92
95;52;44;44
48;48;68;87
79;38;40;64
52;68;79;63
24;40;78;79
44;32;56;79
79;20;52;56
68;87;47;24
32;24;40;44
74;63;16;36
56;76;31;16
24;48;48;62
79;30;24;32
32;32;52;79
63;20;32;36
40;52;68;79
63;32;36;52
78;79;32;32
40;48;48;52
70;79;28;32
56;68;79;79
87;63;48;72
95;79;36;64
78;95;79;54
56;64;103;111
95;52;64;72
96;103;62;48
68;86;103;95
95;48;52;68
86;95;63;40
54;40;64;72
95;63;36;48
64;68;87;87
42;48;68;87
79;32;44;52
52;68;79;63
63;32;32;40
44;64;79;55
47;32;44;48
48;70;63;24
34;32;64;74
63;28;32;52
64;79;79;47
42;24;48;64
79;63;32;32
36;32;40;64
79;33;16;40
64;79;63;39
47;32;48;48
48;68;79;55
55;32;44;48
52;78;79;47
47;36;40;40
52;72;79;63
61;40;64;76
95;63;40;64
72;86;95;95
48;64;102;87
79;64;68;88
109;95;52;64
64;80;103;103
77;52;64;88
111;71;48;64
64;80;95;87
79;44;48;52
72;95;79;44
48;36;44;48
68;79;43;32
48;64;79;79
63;32;44;64
76;87;63;63
63;36;64;87
87;32;32;40
48;52;64;79
63;32;32;44
64;79;20;32
48;60;79;63
63;32;32;52
68;79;79;87
63;36;40;64
86;79;32;32
52;79;79;42
44;32;32;40
44;66;79;63
63;42;44;64
92;79;36;40
52;64;95;79
71;44;48;64
78;95;63;44
44;72;76;95
95;54;52;68
70;84;95;71
79;48;64;64
80;94;79;71
71;48;64;64
76;95;63;40
52;52;68;80
95;44;44;64
72;79;63;54
32;64;64;87
87;42;48;52
64;78;87;63
52;32;44;48
52;76;63;38
47;24;32;36
40;64;79;43
45;32;40;48
52;64;63;26
36;16;20;32
40;60;63;63
47;20;20;32
52;71;47;20
32;20;32;40
64;63;45;24
32;32;48;64
79;47;20;40
52;68;63;63
24;48;56;87
79;38;32;40
48;64;76;79
79;36;32;44
64;76;79;55
59;46;40;40
48;52;68;93
87;42;40;40
44;68;93;63
61;36;40;48
64;86;63;32
44;36;52;64
70;86;63;36
44;36;48;56
86;63;28;36
56;76;79;79
34;40;52;79
79;47;32;32
52;64;79;79
63;36;36;32
48;60;79;79
47;40;68;79
63;32;52;79
63;32;32;36
52;79;63;24
40;68;79;45
36;64;79;63
32;48;76;63
32;48;74;79
46;44;68;79
79;40;48;86
79;36;52;78
95;47;44;79
95;55;48;72
95;63;40;64
80;95;40;64
68;95;79;47
64;86;95;79
64;82;103;79
64;72;100;111
64;64;80;103
95;64;72;92
111;79;64;80
100;95;52;68
76;95;87;52
64;86;95;58
64;88;95;79
48;64;78;95
60;48;72;95
71;40;64;82
95;40;52;87
95;40;48;68
95;54;44;70
84;63;32;52
64;79;47;32
52;79;63;32
44;70;79;55
32;52;68;79
32;48;66;79
32;48;71;63
38;40;56;79
79;55;24;32
64;79;47;32
40;52;68;72
87;47;32;48
64;79;79;79
79;40;64;76
95;79;60;40
48;48;64;84
95;52;48;48
68;92;63;40
48;64;78;84
95;63;48;68
95;95;48;48
64;72;76;95
87;44;84;95
111;71;52;68
98;111;52;48
48;72;80;95
95;55;48;52
64;74;95;71
71;40;48;52
64;72;93;79
63;55;40;32
36;56;64;79
87;47;32;32
64;79;63;47
54;32;32;32
36;56;71;63
63;36;32;32
40;66;79;39
43;22;32;32
52;78;55;20
28;20;40;44
71;55;16;32
56;75;43;28
20;44;64;79
63;38;36;48
48;68;79;63
63;36;32;40
68;87;79;55
63;40;72;84
95;63;40;64
64;82;95;87
79;52;48;68
92;95;71;48
56;44;64;84
103;63;48;64
84;92;95;95
79;52;72;76
84;79;56;48
64;68;95;95
95;62;48;76
103;63;48;64
64;72;95;79
79;46;44;64
64;76;86;95
79;44;44;48
64;87;63;32
38;36;44;48
79;55;24;32
48;71;63;16
32;20;40;68
79;35;20;32
32;52;71;63
63;24;20;32
48;66;75;79
79;32;32;36
64;78;63;47
38;32;40;44
60;79;44;32
48;72;79;63
36;40;48;74
95;39;44;48
56;64;72;87
79;47;40;36
64;76;95;79
71;44;48;64
64;68;84;95
95;62;48;48
52;76;95;79
71;48;68;80
84;94;95;79
79;56;64;64
64;84;92;95
87;54;48;48
68;84;95;63
71;44;48;40
48;76;84;95
79;44;40;48
64;79;79;46
40;36;48;56
64;76;79;63
63;36;36;40
40;52;70;79
63;32;32;36
64;79;47;24
32;32;40;52
71;55;24;32
36;52;70;74
79;38;24;32
48;64;79;79
30;40;52;72
87;38;32;48
52;70;79;47
54;32;52;64
93;79;32;44
68;87;63;62
32;64;76;95
95;46;36;40
64;86;79;38
44;36;52;64
84;79;36;36
40;32;64;64
68;87;95;71
63;44;64;64
72;90;79;52
52;36;64;64
64;86;95;79
71;32;64;70
76;87;79;40
53;36;40;52
64;64;79;79
63;44;40;48
64;79;71;63
63;46;40;48
48;64;79;79
79;47;32;32
40;36;78;79
63;38;40;48
48;56;79;63
63;24;24;36
52;71;47;20
32;16;32;40
36;62;63;47
55;31;32;40
48;56;79;63
63;32;40;56
52;79;79;55
55;44;48;64
76;87;47;36
40;32;64;72
95;63;40;40
64;68;95;95
95;61;44;52
76;95;95;95
52;64;68;84
103;79;52;48
76;95;79;48
52;52;76;88
95;71;40;64
80;87;71;63
68;44;40;64
72;95;71;63
36;64;68;95
95;50;48;64
64;72;94;87
87;59;48;52
64;78;95;79
71;44;48;64
52;64;68;87
87;41;32;32
40;52;79;63
63;32;36;32
32;52;60;79
79;39;32;48
48;56;79;63
63;38;36;48
48;56;79;63
63;38;36;56
52;64;79;79
79;38;36;48
52;64;79;79
79;47;40;48
72;95;42;36
64;78;79;63
63;47;48;68
76;87;63;52
36;64;72;95
95;71;48;48
76;95;79;55
58;48;64;64
88;95;71;48
52;64;64;68
95;71;40;52
72;95;44;32
40;68;79;55
47;32;32;40
64;79;63;47
63;32;64;64
64;76;63;34
32;56;87;79
63;39;40;52
76;87;36;20
32;52;79;79
79;47;32;32
36;52;71;63
63;38;24;32
40;68;79;47
55;32;32;32
52;79;55;24
48;76;63;36
36;56;79;63
32;52;79;63
36;64;87;79
32;64;78;95
55;40;64;94
79;36;64;84
95;55;64;78
95;71;48;68
95;71;48;72
92;95;50;64
64;95;95;71
48;84;103;95
52;76;95;103
64;64;88;103
69;64;84;95
79;52;72;86
95;63;48;76
95;63;48;76
94;79;44;76
94;71;44;64
68;95;55;36
64;87;79;40
52;78;87;63
36;52;68;72
87;47;32;64
79;63;32;40
52;76;79;47
40;64;79;63
38;44;70;79
47;40;64;79
55;32;56;79
79;32;32;64
74;79;32;48
56;79;63;32
64;87;63;40
48;76;79;32
40;68;87;79
36;64;87;63
40;48;64;84
95;63;32;40
44;64;79;95
79;40;32;40
40;64;64;87
95;63;52;47
40;64;68;90
95;71;44;44
76;92;59;40
48;64;84;95
71;42;48;76
93;79;79;63
60;48;64;72
88;79;40;64
64;68;86;79
79;36;52;64
64;68;87;87
79;46;32;48
64;79;47;32
36;44;64;74
79;46;32;52
76;63;26;32
32;52;78;63
63;37;32;32
32;52;79;63
63;24;32;40
64;78;35;24
52;71;55;16
32;36;56;76
79;46;32;44
36;64;79;79
79;47;32;36
36;56;76;79
79;47;40;48
48;68;84;79
79;44;32;36
36;64;78;95
79;36;36;40
64;78;79;47
46;40;40;40
48;68;72;95
95;40;68;76
95;63;40;48
68;95;63;55
40;64;68;95
95;58;48;64
76;95;79;46
44;48;44;48
40;56;68;87
79;63;36;32
32;32;40;64
79;47;24;20
32;20;36;64
75;47;30;16
32;40;44;70
78;63;24;32
24;44;54;71
79;31;16;16
32;52;79;55
63;32;24;32
48;76;63;31
34;32;32;32
48;71;79;47
63;47;32;44
48;64;79;79
71;38;48;64
64;87;63;32
36;40;52;64
72;87;55;32
40;56;68;87
63;32;40;64
76;79;36;36
64;79;79;47
46;36;52;64
52;68;79;95
79;52;40;40
48;48;76;95
79;40;40;40
40;68;87;79
63;36;48;52
76;79;47;32
40;48;64;64
87;55;32;44
52;76;79;63
20;40;48;76
79;45;16;32
32;60;79;63
47;32;32;36
32;52;79;47
55;28;20;32
24;48;71;63
63;46;24;32
32;48;52;78
63;20;32;36
56;63;39;20
20;20;40;56
63;63;79;47
55;36;32;36
64;76;79;63
63;40;40;56
64;79;63;36
36;32;64;72
79;47;36;64
68;87;79;71
63;36;64;84
95;79;40;64
64;78;95;79
63;48;64;64
68;80;95;95
71;48;48;68
64;68;95;95
79;52;48;64
64;78;95;79
63;48;48;64
90;79;46;44
52;76;87;87
46;40;52;76
95;63;36;32
32;64;76;87
79;32;48;52
79;79;32;40
64;76;74;79
79;63;36;36
44;48;68;78
63;30;40;64
79;63;32;32
52;79;63;28
38;32;36;48
60;79;47;24
32;36;54;76
63;47;32;56
70;79;63;63
46;40;68;95
87;40;40;48
64;87;63;36
36;40;52;56
76;95;95;71
63;48;68;76
72;87;95;79
77;44;64;64
80;95;87;48
54;44;64;68
86;95;61;44
44;48;64;78
87;79;40;64
78;94;79;47
32;64;76;94
95;46;53;40
36;64;72;95
79;40;52;68
64;87;55;36
52;70;79;79
32;40;48;64
79;79;47;24
44;56;76;79
63;32;32;48
40;56;71;79
63;20;32;32
56;77;47;24
30;16;36;40
62;79;33;32
32;32;68;63
55;20;40;68
79;47;32;36
48;64;70;79
63;32;40;40
68;79;44;32
36;32;52;56
56;78;28;32
36;48;68;79
74;79;38;32
36;36;48;48
68;79;55;32
36;32;32;48
40;64;79;63
47;32;64;79
79;45;36;64
68;79;79;63
55;36;44;68
78;79;40;32
32;64;87;79
63;36;32;32
24;52;78;79
63;32;40;48
70;79;47;32
32;32;40;56
78;63;24;32
40;52;68;79
63;20;36;56
79;47;24;40
36;44;64;79
63;24;32;32
32;40;70;63
63;20;32;44
40;52;63;39
39;24;32;32
64;79;55;24
28;32;44;52
52;70;79;47
46;32;40;52
52;68;79;39
36;64;79;63
36;64;79;95
55;48;64;76
95;55;48;86
95;63;48;64
72;95;63;48
72;95;63;44
72;95;79;48
64;88;95;63
64;78;95;95
58;64;80;94
103;68;64;86
102;95;48;72
90;95;52;64
72;95;63;44
52;82;95;71
40;64;87;79
36;64;86;95
44;52;72;87
87;40;52;85
95;47;48;64
78;79;32;56
72;79;32;52
64;79;47;32
52;79;79;32
32;64;79;79
32;56;76;87
32;44;68;87
63;32;48;64
79;63;32;72
87;63;36;64
84;79;36;68
86;79;36;52
64;86;79;47
48;76;95;55
64;86;95;79
48;72;92;95
63;64;72;102
95;60;64;80
100;95;48;72
76;86;95;95
48;64;96;111
95;67;76;76
96;95;63;52
64;64;80;88
79;44;48;76
95;79;47;36
32;56;68;84
95;62;32;48
40;68;79;55
55;32;44;52
78;63;28;32
32;36;48;64
63;47;20;32
40;48;71;71
79;28;32;32
40;48;71;79
47;20;40;64
79;47;16;36
32;60;60;79
71;71;55;24
32;52;87;63
47;36;32;40
48;71;79;63
47;32;64;68
79;79;47;40
64;87;79;55
32;64;64;84
95;79;63;52
48;52;64;95
87;52;40;48
68;72;79;79
48;64;76;79
71;40;64;92
95;54;40;52
76;95;71;48
64;78;95;79
48;64;78;95
79;48;64;88
95;55;48;64
68;87;87;95
47;48;64;76
95;79;32;40
32;64;68;87
79;36;40;48
52;68;79;63
47;32;36;52
52;74;55;24
32;24;32;48
52;71;37;16
32;36;56;63
31;16;16;48
68;63;31;12
32;36;54;71
79;24;32;32
48;79;47;24
24;32;56;56
79;63;20;32
44;48;64;68
79;47;38;40
52;72;63;45
44;44;64;84
87;87;55;36
36;40;48;68
78;95;63;32
64;76;95;79
58;48;48;48
64;92;95;79
69;55;48;64
64;84;95;53
48;64;87;95
71;44;48;64
92;95;71;38
64;72;95;71
50;64;80;95
79;50;48;72
95;62;40;64
84;87;63;40
64;72;95;63
40;40;48;68
79;63;32;32
32;64;79;63
63;32;32;40
52;79;63;32
28;32;40;48
52;64;63;39
38;24;48;54
70;64;79;63
55;32;32;36
32;56;70;79
79;54;32;32
32;56;64;79
87;36;32;32
32;52;64;79
79;47;32;36
48;64;79;63
63;32;52;64
76;79;63;36
40;44;68;72
94;79;36;48
64;95;63;40
32;64;80;95
95;79;54;48
48;72;95;79
63;48;64;70
92;87;95;95
87;48;64;64
80;84;95;63
52;40;48;52
70;84;63;24
48;79;79;63
32;48;64;76
95;47;24;32
40;70;63;47
46;36;48;48
70;79;79;55
55;38;32;52
76;79;63;32
36;44;70;74
87;63;32;48
64;87;39;32
36;44;64;79
79;32;32;32
52;64;79;79
79;32;52;64
64;85;63;36
36;48;64;68
79;79;55;32
52;64;87;87
79;40;40;64
76;95;79;63
55;44;64;84
103;63;44;64
52;68;92;95
95;48;64;64
80;95;71;48
52;64;84;92
79;44;40;48
64;92;95;95
71;40;64;84
95;71;48;52
68;87;87;55
52;36;64;68
79;79;63;36
36;32;64;64
79;79;47;32
36;40;70;79
63;32;32;52
64;79;79;63
63;32;44;64
87;79;46;32
32;64;72;79
79;34;32;36
48;79;79;47
42;32;36;48
48;64;79;79
79;32;48;52
70;79;79;40
40;32;52;64
78;79;32;64
87;79;36;36
44;52;78;94
79;55;40;52
48;64;70;95
79;44;48;64
64;72;86;87
71;55;44;40
52;64;76;95
87;46;48;40
52;64;92;95
95;52;64;64
64;64;64;79
95;46;32;32
32;52;79;79
79;47;32;48
64;79;63;32
36;32;48;64
79;47;20;40
52;76;79;63
63;40;70;87
87;32;32;40
32;40;72;79
79;24;32;32
48;64;63;47
39;24;40;52
48;71;47;32
32;36;48;52
71;63;20;36
44;71;79;63
45;32;44;64
87;63;55;36
36;64;72;84
95;38;40;36
40;32;48;68
95;63;32;48
48;64;86;87
79;36;40;48
68;68;95;63
61;46;48;64
64;76;95;79
40;40;48;64
84;95;63;40
64;72;84;95
79;44;48;68
90;87;62;36
52;68;84;94
95;63;36;52
48;64;94;79
63;36;64;64
84;87;61;32
40;40;64;70
68;79;63;32
32;32;40;48
64;79;61;32
32;32;36;52
71;63;16;32
48;70;47;31
8;32;52;66
79;38;40;44
60;64;79;63
63;32;36;64
66;79;63;32
36;32;40;52
79;79;86;79
79;40;44;48
48;64;79;79
71;32;64;64
76;79;42;48
68;92;79;63
36;48;64;84
95;71;44;64
80;95;95;46
52;64;88;95
87;50;64;84
103;63;48;68
92;103;87;44
64;76;92;95
52;64;80;95
79;48;64;80
76;95;95;40
44;64;92;79
40;48;64;90
87;44;52;40
56;86;63;36
48;76;79;32
32;52;70;87
63;32;52;70
79;36;36;66
79;63;32;32
56;79;34;40
64;79;30;32
36;68;63;36
32;64;79;32
32;64;79;63
32;56;78;79
36;44;64;87
47;32;56;72
63;32;48;76
63;32;52;72
79;32;40;70
87;38;48;64
87;63;36;76
87;63;40;32
48;78;87;47
44;68;93;63
44;64;78;95
71;40;68;91
62;48;72;94
95;52;64;72
95;71;48;80
95;79;48;44
64;82;95;87
40;64;80;95
46;64;78;95
63;40;64;76
79;32;52;74
87;47;40;64
76;79;32;56
68;79;39;36
52;79;47;32
48;68;79;63
63;32;32;48
64;79;63;39
36;48;68;78
79;32;32;32
32;44;52;71
79;44;32;48
56;56;63;32
39;24;24;32
36;64;63;22
32;48;64;79
63;36;40;64
79;32;32;48
72;79;44;32
48;64;78;87
63;32;64;76
95;47;52;64
84;87;71;48
72;92;95;71
40;64;72;92
95;54;40;52
64;92;95;79
44;64;64;72
94;87;55;64
68;95;87;71
71;60;48;64
88;95;63;44
52;64;78;90
95;71;47;36
48;64;76;87
63;36;64;70
87;46;36;56
79;79;47;32
48;72;79;63
36;48;64;79
71;24;40;64
87;47;32;52
70;79;63;24
48;79;79;47
32;48;64;71
79;46;52;48
64;64;79;63
55;36;36;44
56;64;87;79
79;44;52;64
70;84;87;53
55;36;44;64
64;64;87;79
63;40;40;48
64;78;79;55
55;40;48;64
64;64;64;84
85;95;79;46
48;68;72;94
95;77;36;48
52;64;72;95
79;44;40;40
48;70;79;63
71;40;36;48
56;76;95;55
63;36;40;52
64;70;79;63
47;36;32;52
64;76;63;32
32;36;52;56
56;79;16;20
32;48;79;63
55;32;48;56
79;55;16;32
20;32;36;48
63;31;31;16
24;32;52;63
63;20;16;16
12;32;46;63
79;47;32;24
40;56;71;63
63;36;20;32
32;44;71;63
79;32;32;32
40;56;79;63
63;32;32;32
40;52;70;79
79;63;32;36
36;44;48;68
87;78;32;32
52;68;79;63
63;55;63;50
52;44;32;64
95;63;36;40
40;52;72;95
87;55;40;52
56;68;87;79
79;40;32;36
36;40;52;64
87;47;24;32
44;64;79;63
63;38;32;32
56;78;63;24
32;32;48;60
79;63;37;32
40;52;79;79
79;24;24;44
60;79;63;63
63;36;36;56
79;63;47;32
32;40;52;66
79;55;24;32
32;32;40;52
79;47;22;32
24;32;64;63
39;32;56;78
79;47;36;52
78;79;55;32
64;78;95;63
40;52;68;87
79;38;40;64
94;71;36;64
76;95;79;44
52;68;82;95
79;48;64;72
80;95;40;40
40;64;68;87
95;70;40;40
36;48;64;84
95;47;36;44
64;79;87;62
63;32;48;56
56;64;79;55
63;32;36;40
48;64;79;63
63;32;32;36
52;68;63;32
24;32;32;32
36;52;62;63
63;39;20;24
20;32;62;63
55;16;32;48
52;63;47;8
20;8;48;48
54;63;28;16
32;44;62;68
63;24;20;36
58;63;55;26
32;16;32;44
78;62;24;20
36;48;70;79
79;47;48;64
79;79;42;40
64;87;63;71
55;48;64;84
95;71;47;40
64;86;79;63
48;72;95;79
62;48;64;94
95;77;48;72
95;87;60;64
72;95;87;55
48;68;95;95
56;40;72;94
79;52;40;68
64;95;55;40
32;48;76;79
87;55;32;44
64;64;79;79
87;52;32;40
40;56;79;63
63;38;32;40
48;64;79;47
47;24;52;70
79;30;32;40
64;77;37;24
20;32;44;63
79;55;16;32
40;44;60;71
79;39;48;64
79;63;24;32
52;74;79;47
36;32;32;52
79;63;28;32
32;64;79;63
63;55;32;40
48;52;77;79
79;44;36;36
48;64;87;63
79;36;32;44
64;72;95;55
63;36;48;40
48;78;79;63
59;44;36;40
40;40;64;70
87;63;32;40
36;48;79;87
79;38;36;44
48;64;79;47
54;32;32;36
40;48;79;55
55;45;24;36
48;64;64;79
79;36;32;32
52;70;79;38
32;20;40;40
56;79;45;20
32;56;63;63
24;32;40;60
79;55;28;20
20;32;52;71
79;39;20;32
32;32;52;71
79;22;24;32
44;48;77;47
55;28;32;32
44;62;79;79
79;55;32;36
52;72;79;47
47;32;36;48
48;64;72;87
79;79;63;36
44;48;48;64
95;79;42;40
64;72;72;87
95;63;40;44
44;64;84;95
95;58;40;48
52;64;87;95
87;47;40;44
40;52;76;87
95;59;32;40
48;64;79;79
63;44;40;48
64;52;79;63
63;32;48;64
79;63;20;40
68;79;63;47
55;36;32;44
64;79;55;36
28;36;48;60
79;47;24;20
32;56;63;63
63;47;24;32
36;56;78;79
24;48;74;63
24;48;68;87
55;32;56;72
63;32;52;74
79;32;40;64
68;79;36;52
68;79;44;48
64;87;36;64
68;95;59;40
40;68;87;79
38;64;76;87
71;40;64;86
95;63;48;64
76;95;63;64
68;95;79;44
48;72;95;95
52;52;72;80
95;55;48;76
92;95;44;64
64;92;79;40
64;92;79;48
64;92;79;40
52;84;63;36
36;64;79;95
47;40;64;68
79;63;32;64
70;79;32;48
64;79;55;40
52;79;47;32
40;71;63;24
40;70;79;34
32;64;78;79
36;48;68;79
47;36;64;74
79;36;36;68
79;36;40;64
79;63;32;52
72;79;32;48
68;79;32;52
52;86;79;38
40;72;87;63
40;40;48;64
82;79;63;44
40;64;76;87
87;95;79;63
48;72;92;95
95;71;48;64
72;94;95;95
56;64;64;72
88;103;79;44
52;64;95;95
95;63;48;64
90;95;77;46
48;52;64;72
93;79;63;54
48;40;64;90
95;71;32;40
40;64;64;79
95;55;36;48
64;76;95;63
71;47;40;52
64;70;79;47
38;20;48;40
48;77;63;24
28;16;36;48
48;64;63;22
20;40;71;79
63;24;64;71
87;47;24;32
40;60;79;47
38;32;52;72
79;63;42;40
68;91;63;32
52;68;87;79
38;48;64;78
95;63;40;64
95;95;40;64
80;95;79;44
64;72;88;95
55;40;44;68
86;79;36;40
64;76;95;79
79;63;40;64
64;72;95;79
71;48;40;52
64;84;87;47
48;36;40;40
64;79;63;24
32;32;64;68
79;47;24;32
48;74;63;47
16;56;79;63
63;36;32;32
40;52;79;39
39;22;32;32
40;48;63;63
63;36;20;32
40;40;63;63
63;37;24;32
36;48;77;79
79;47;32;48
64;79;63;32
32;40;74;79
79;47;32;40
68;79;79;61
47;40;40;64
79;87;55;32
40;52;64;78
95;71;62;40
44;44;70;87
87;79;44;44
36;52;76;95
79;63;54;40
64;76;95;63
40;72;95;95
95;48;64;72
76;95;87;63
60;64;84;103
111;79;64;48
64;80;103;95
54;44;64;48
52;76;95;63
59;44;48;52
72;87;63;32
48;70;87;95
95;63;36;64
76;95;79;62
51;40;48;64
64;86;79;47
46;36;64;78
79;32;48;64
78;79;63;32
68;84;79;63
36;48;68;79
63;32;52;68
87;79;44;40
64;76;87;63
36;52;68;95
79;36;64;68
95;40;47;48
70;95;95;63
60;48;72;84
95;95;46;48
48;48;64;68
95;95;47;40
40;64;64;76
95;79;79;63
48;64;78;94
95;87;44;48
48;72;84;95
54;48;64;84
95;71;40;64
84;95;62;48
64;84;94;79
40;48;68;78
87;63;40;48
68;86;79;36
48;68;86;63
36;40;64;79
63;63;34;48
70;87;87;79
36;48;64;68
87;79;71;42
32;64;79;79
79;63;32;40
48;56;68;79
87;55;36;32
40;64;76;79
79;39;40;40
64;76;79;54
36;32;68;72
91;63;36;44
68;87;79;55
44;32;64;72
94;63;44;36
48;52;78;87
79;63;36;40
52;48;70;79
95;79;40;40
48;64;72;94
95;52;36;48
64;79;95;63
36;68;78;95
95;50;52;78
95;63;47;40
64;72;95;79
40;40;72;76
95;63;42;40
64;79;87;79
63;40;48;64
76;79;36;36
64;79;79;55
36;40;64;79
79;46;40;64
79;55;32;36
68;79;63;28
36;64;76;79
55;32;40;70
79;39;36;48
70;79;79;32
32;40;52;68
79;79;79;32
36;36;52;56
87;55;32;52
84;79;32;32
36;48;79;79
63;63;48;64
78;95;55;36
64;87;87;63
48;48;72;95
87;40;64;86
95;46;48;64
87;79;40;48
72;78;95;79
60;64;80;95
95;71;48;76
95;95;63;48
72;86;95;87
48;64;76;95
79;47;40;64
82;95;79;63
63;40;52;64
68;87;46;32
40;48;79;79
47;32;44;32
48;68;79;28
32;40;58;74
79;63;16;40
56;79;63;63
47;32;56;64
79;79;47;24
40;56;79;79
63;47;32;32
48;64;79;63
63;55;32;32
48;70;79;55
44;32;44;64
76;79;63;32
44;64;91;87
95;79;47;40
64;84;95;95
87;48;48;64
86;95;71;48
48;64;80;95
95;79;52;48
48;64;92;95
95;71;52;64
64;94;95;79
48;68;92;95
58;64;84;100
79;48;64;76
90;95;44;64
72;95;79;40
48;72;92;95
44;52;72;87
71;36;52;68
87;71;32;44
85;63;32;56
68;79;42;32
48;70;79;36
32;64;79;55
32;48;64;79
55;32;40;56
79;39;32;52
60;79;32;32
40;68;79;36
32;64;79;38
24;48;70;79
32;44;68;63
32;48;68;87
34;48;64;84
63;36;44;64
86;63;32;48
48;78;79;36
40;68;79;38
32;48;68;84
63;32;64;68
84;79;36;64
78;79;44;36
64;87;79;40
40;68;87;95
79;71;52;72
86;95;79;62
52;64;76;94
95;79;79;48
52;52;68;78
87;95;63;50
44;48;68;76
92;79;36;36
32;52;64;76
79;32;36;48
64;79;63;32
48;70;79;32
48;68;79;63
44;36;56;64
79;39;32;48
79;79;24;36
52;76;79;47
32;52;68;79
31;32;40;56
68;79;63;63
47;32;40;52
72;79;38;32
32;36;48;70
79;63;63;38
42;40;64;78
95;63;32;48
64;76;79;36
36;40;68;79
95;55;44;68
84;79;55;48
72;80;94;95
56;48;68;84
95;63;48;68
94;87;50;52
76;86;95;79
52;64;76;92
95;50;64;84
103;63;48;68
88;95;79;48
56;64;84;95
71;44;40;52
64;79;72;74
87;79;32;40
64;79;87;79
63;36;48;64
87;79;42;32
52;76;79;63
61;32;48;56
76;79;46;32
52;79;79;63
55;36;32;52
78;79;47;32
36;32;48;56
79;79;38;20
44;64;79;79
71;61;36;32
44;64;79;55
40;32;48;64
64;74;94;79
71;54;36;44
52;84;95;63
58;52;40;48
72;95;95;63
79;70;48;48
64;84;95;79
79;50;64;68
76;95;95;44
48;64;84;94
95;71;40;64
82;95;71;50
36;76;95;71
63;40;68;72
86;79;63;36
44;64;84;95
87;40;40;48
74;79;79;55
47;40;64;68
86;79;47;32
36;52;64;76
87;79;36;32
32;64;87;79
79;63;36;24
36;52;78;79
79;55;36;36
48;64;87;55
47;32;40;48
40;68;63;30
32;32;64;79
79;63;46;32
48;76;76;93
87;79;40;64
76;95;95;79
66;54;44;64
86;95;52;40
48;64;95;87
79;63;40;48
64;78;95;63
61;40;68;76
84;95;63;48
64;68;72;94
95;46;44;64
76;95;63;48
40;68;86;95
87;63;48;64
64;76;95;63
50;40;52;52
64;87;79;42
36;44;76;87
87;63;47;40
68;87;63;63
55;40;64;68
90;63;38;32
36;36;60;78
79;71;63;45
32;48;56;68
79;63;47;32
16;56;74;79
79;47;32;32
52;52;60;76
79;79;20;32
40;64;79;79
79;63;36;36
44;48;79;79
79;63;54;40
40;48;84;95
95;71;48;44
64;64;78;95
95;79;44;52
64;76;95;79
71;55;64;64
84;95;79;40
64;86;95;95
79;48;64;68
72;103;95;87
79;64;64;72
76;95;79;48
48;64;80;95
95;79;44;48
64;68;95;79
62;63;40;52
64;74;95;63
44;40;32;32
52;72;87;63
53;40;36;44
68;79;63;24
44;70;87;63
38;32;48;72
79;79;47;32
32;32;64;79
79;63;63;63
32;64;86;79
79;63;40;40
52;64;87;63
63;55;40;44
64;87;79;32
36;52;79;92
95;55;40;52
72;95;63;47
40;52;78;95
95;87;71;58
69;64;76;94
93;109;79;56
64;64;76;95
95;95;79;52
64;84;109;95
87;56;64;64
84;108;95;48
64;92;95;95
95;64;80;88
108;95;79;64
64;64;72;84
95;87;63;48
64;48;76;92
95;79;44;64
76;95;79;36
48;52;76;91
95;63;36;48
64;87;79;71
63;36;36;52
68;87;79;79
63;36;48;64
82;87;63;38
32;52;76;87
79;32;64;64
64;87;63;32
32;72;94;79
63;36;40;64
87;79;63;44
47;36;64;76
91;95;32;48
72;87;79;44
40;40;72;78
93;79;55;48
68;94;95;95
79;48;64;76
86;95;79;58
71;52;68;84
95;95;79;68
66;48;64;86
95;95;44;48
64;86;95;69
48;48;68;72
92;79;50;48
72;92;87;79
79;48;64;64
78;95;79;63
48;48;78;95
95;87;55;48
48;48;64;68
82;79;61;44
44;40;64;74
87;63;32;32
32;32;52;66
78;79;63;36
32;36;64;79
79;63;32;32
32;32;48;68
79;63;28;32
36;48;64;79
79;55;32;32
48;70;79;39
36;32;32;36
64;76;63;24
32;52;68;79
79;32;32;52
68;79;79;63
40;48;68;79
79;95;95;55
48;64;64;84
80;95;71;54
55;40;52;64
68;94;95;79
40;64;90;95
95;48;64;72
84;92;95;95
95;95;87;79
64;64;96;111
79;64;72;88
111;95;67;68
84;103;79;48
52;80;95;62
48;68;94;79
59;64;72;94
79;40;64;78
95;36;48;64
87;63;36;64
87;63;32;64
64;79;42;32
32;68;79;32
40;68;79;38
24;52;70;79
28;48;68;79
36;40;56;78
47;32;44;64
63;24;40;56
76;55;32;36
64;79;36;40
64;79;38;32
64;87;55;40
64;87;55;32
64;87;63;48
64;94;63;36
48;84;87;40
48;78;95;63
54;64;76;95
79;44;68;92
95;63;52;68
78;95;79;44
48;76;95;71
44;72;95;79
52;64;72;84
79;40;64;76
95;40;52;68
87;63;36;64
87;47;40;64
79;79;32;40
76;79;32;48
64;87;47;32
36;68;79;79
63;46;36;40
52;64;79;63
63;55;24;48
64;79;63;32
36;64;74;79
79;79;79;36
40;64;87;87
87;38;32;48
72;87;79;63
40;36;72;87
95;79;42;40
48;64;95;79
79;63;48;40
32;64;90;87
79;55;64;52
64;76;76;94
95;95;71;48
64;86;95;63
48;64;64;72
95;87;71;44
64;90;95;87
79;64;72;84
92;111;79;64
64;64;68;84
95;95;71;52
40;80;95;95
87;95;52;48
64;72;95;79
52;44;72;70
76;95;87;54
50;48;76;70
95;63;44;40
64;91;79;47
36;40;72;86
87;79;47;36
40;48;79;87
79;63;32;40
52;64;79;39
32;36;68;79
79;47;47;24
40;66;79;87
79;87;63;40
64;84;87;63
54;36;48;76
90;95;63;32
48;48;64;76
86;95;63;36
48;40;68;82
94;95;40;48
68;95;95;63
46;64;72;68
84;95;63;48
72;94;103;87
87;64;72;90
100;111;71;52
64;64;84;102
103;103;79;64
64;72;110;95
87;64;64;64
80;95;95;52
52;80;102;95
95;63;48;64
72;95;95;79
69;48;64;68
84;87;79;60
55;44;52;68
82;79;79;79
71;61;48;72
84;95;79;58
32;48;76;95
63;36;52;72
87;71;32;64
76;79;36;32
48;64;72;79
63;32;44;64
79;79;63;32
48;40;64;87
63;32;48;68
87;47;32;48
66;79;55;40
64;79;87;87
63;52;44;64
72;95;87;71
54;48;64;78
92;95;79;62
52;80;94;95
95;95;71;52
64;84;111;54
64;72;64;72
86;95;71;44
64;76;95;95
42;48;68;86
95;95;95;87
79;64;52;64
78;103;79;48
48;64;68;87
87;79;40;48
36;68;87;63
32;32;48;48
79;47;16;36
40;78;39;20
24;32;60;71
63;47;24;32
40;52;79;63
55;47;24;36
64;79;63;24
32;52;70;76
79;34;32;48
64;87;63;61
63;36;32;48
68;79;79;79
79;46;40;64
72;95;95;79
71;48;64;76
88;95;95;79
52;48;80;100
103;95;60;48
64;88;100;111
95;95;68;64
64;86;111;95
48;68;76;84
95;71;60;64
84;103;95;71
64;72;80;95
103;95;79;64
52;64;94;111
95;95;54;64
48;76;95;87
71;48;64;68
72;95;62;44
36;64;64;79
63;32;48;64
79;39;32;44
64;79;79;32
32;36;64;63
20;32;44;68
78;31;20;32
60;71;63;16
36;44;56;78
47;30;24;40
68;63;55;28
32;48;79;63
63;55;36;32
48;76;79;63
59;36;48;44
64;84;79;32
40;76;95;79
39;64;68;84
91;95;63;48
48;64;76;95
77;36;64;72
95;46;48;72
95;63;44;48
68;95;95;50
48;64;76;95
79;40;64;72
95;61;44;64
82;95;63;40
64;72;87;87
46;40;48;64
76;63;32;32
32;64;79;79
28;52;48;52
56;78;63;28
32;56;76;79
79;47;32;36
52;72;79;63
63;32;48;64
56;78;79;63
24;48;64;79
63;32;40;64
71;79;55;32
52;74;79;34
32;52;66;79
55;24;44;68
79;55;24;40
64;79;63;36
48;64;78;79
38;32;64;74
79;63;63;32
48;40;76;87
79;79;40;48
64;86;95;95
63;48;64;76
84;95;52;48
48;64;90;95
95;95;77;63
64;68;103;79
64;64;80;84
95;95;60;64
80;95;79;48
64;78;95;95
70;64;64;80
95;62;48;68
94;63;40;48
72;87;63;40
64;64;86;63
32;32;64;78
79;32;40;64
68;79;87;63
24;32;64;64
87;55;43;32
52;79;47;36
39;32;36;48
64;79;63;36
24;36;48;52
56;79;63;32
24;36;76;79
79;79;79;79
71;52;68;92
87;46;64;68
92;95;71;48
68;72;94;87
40;48;68;95
87;44;48;64
76;95;63;40
64;76;95;79
40;40;64;86
95;52;48;52
84;95;62;64
72;92;95;79
64;48;76;92
95;95;60;40
64;72;94;95
79;52;64;64
68;82;95;63
40;48;64;64
72;79;55;32
40;76;79;63
32;40;64;72
79;39;32;44
64;78;63;32
44;48;64;79
38;32;44;66
79;22;32;36
68;63;47;16
48;68;63;20
20;40;60;63
46;16;40;60
63;55;24;16
36;36;48;71
63;55;30;32
52;79;63;55
32;48;74;87
63;40;68;87
79;36;64;78
79;36;48;68
84;79;36;48
64;92;79;52
36;68;95;55
40;64;92;87
46;64;92;95
66;64;80;95
71;64;80;95
95;48;64;76
95;79;48;64
80;95;71;48
80;95;46;64
72;95;54;40
78;95;44;52
68;95;55;32
48;76;95;36
40;72;79;32
36;64;87;44
32;52;76;79
63;32;48;64
79;63;32;40
74;79;32;40
64;79;47;32
68;79;32;40
56;79;43;32
52;78;47;32
44;71;63;24
40;64;79;24
32;64;79;47
28;44;68;79
32;40;56;79
71;32;44;64
79;63;32;48
79;71;32;48
64;87;55;32
68;87;61;40
64;86;79;47
40;68;94;79
36;64;72;76
86;95;63;40
64;86;95;95
79;56;48;72
80;95;79;71
71;64;72;86
95;87;46;40
64;88;95;95
71;48;64;64
80;95;95;44
52;76;92;95
95;62;40;48
48;76;95;79
59;40;52;68
76;95;63;46
46;36;52;64
68;87;79;47
55;32;52;64
68;79;79;55
55;40;48;64
68;87;63;47
71;44;40;52
68;87;22;32
48;76;79;63
38;40;64;68
78;79;63;32
48;72;95;87
63;36;64;78
84;95;79;62
48;64;94;95
87;63;48;52
64;64;72;84
90;95;54;36
64;76;95;95
71;48;64;64
84;95;95;48
40;72;103;87
87;64;64;68
64;95;95;95
71;52;64;72
80;95;87;63
48;72;92;95
79;48;68;84
86;95;36;64
68;94;87;63
47;48;64;76
84;95;79;79
54;40;64;68
76;95;79;62
40;40;44;64
70;87;34;24
44;64;79;63
63;47;40;36
52;64;76;63
47;32;48;64
68;79;63;32
48;72;87;63
79;44;48;64
68;87;79;63
63;40;64;74
84;79;79;55
52;80;95;71
52;48;68;64
95;95;79;48
64;90;103;95
95;79;64;64
80;100;111;87
79;52;84;102
103;111;79;64
64;84;72;96
94;95;79;68
52;76;108;95
71;48;84;80
92;103;95;67
44;76;103;95
71;48;64;80
78;95;95;71
47;40;76;95
95;103;40;44
64;86;87;36
64;76;95;95
95;54;64;72
76;95;79;71
46;48;78;95
87;95;63;36
48;68;94;87
63;44;40;48
76;87;79;36
48;70;87;79
79;52;64;68
76;95;63;61
40;64;48;68
72;95;71;52
48;40;68;84
78;95;79;63
40;64;84;95
95;95;44;44
48;68;92;95
95;111;87;68
52;68;94;111
103;111;79;95
64;64;96;111
111;119;79;64
64;72;96;111
111;111;71;64
84;108;111;68
64;88;111;111
111;79;64;64
80;109;111;103
79;64;72;92
98;111;95;75
64;84;98;111
95;77;48;64
64;84;95;79
44;64;78;84
95;79;46;40
64;92;95;95
79;59;64;68
76;92;87;63
55;36;68;86
86;95;63;32
48;76;91;95
79;87;44;40
64;87;95;47
44;64;64;64
86;79;79;40
48;78;95;79
79;52;40;64
68;95;95;79
52;64;80;95
95;111;62;71
48;64;84;103
103;111;56;48
72;92;103;95
71;64;80;80
88;111;111;79
64;80;84;100
111;95;77;64
76;102;111;111
95;79;64;76
88;111;95;95
64;64;98;111
111;111;95;79
76;64;96;108
108;111;95;64
64;64;72;84
88;95;95;87
70;48;64;84
92;95;95;79
48;64;80;94
90;95;95;95
79;48;64;76
80;95;95;63
62;48;64;86
84;95;63;44
48;72;95;79
71;44;64;64
76;95;87;40
40;64;72;84
87;95;79;44
48;72;94;95
95;44;48;76
84;95;71;40
64;64;95;79
71;44;52;52
80;95;79;44
48;64;86;95
95;71;52;48
64;86;86;92
111;63;48;64
72;95;103;111
79;65;72;96
100;111;79;54
64;72;88;111
95;95;66;48
68;84;103;79
52;64;68;76
95;79;63;40
64;76;87;90
79;50;64;72
78;95;79;79
79;40;64;74
82;95;71;54
40;64;78;95
87;79;44;36
40;44;64;79
79;87;79;63
40;44;64;84
87;79;32;32
40;64;87;55
32;40;64;70
78;87;79;47
40;70;76;94
79;79;40;64
68;95;95;87
48;64;76;94
92;103;79;52
64;64;72;88
88;111;87;60
64;48;72;86
92;103;95;71
71;64;68;86
92;111;71;48
64;76;94;111
111;95;71;64
72;80;94;111
95;87;52;64
72;95;95;55
48;68;80;95
87;58;48;64
68;92;95;79
52;48;84;95
95;87;79;48
64;80;94;95
63;48;64;64
86;95;71;40
64;84;79;71
44;52;64;78
76;92;79;55
48;36;64;78
79;87;79;47
44;48;78;94
87;95;63;36
48;72;95;63
36;64;78;79
79;44;64;72
91;71;44;64
92;79;40;48
68;95;62;36
64;95;63;40
64;86;79;46
40;68;90;79
40;64;72;93
79;44;64;68
95;79;44;64
95;87;44;48
76;95;71;40
68;95;79;48
64;84;95;63
44;68;86;95
55;64;80;95
71;52;68;84
95;40;64;84
95;52;48;64
93;79;40;40
68;93;63;40
52;78;87;63
55;48;68;87
63;40;64;79
79;32;48;64
87;55;32;52
79;63;32;40
56;79;39;20
40;64;63;24
32;60;79;39
24;52;79;32
24;52;79;47
32;52;78;63
24;48;76;79
47;40;56;76
79;36;40;64
87;47;40;64
76;79;38;44
52;79;79;32
44;72;95;79
79;48;64;72
92;95;95;79
56;48;90;111
95;79;64;72
72;95;111;79
52;72;88;100
95;103;79;52
64;86;95;103
103;95;87;64
68;92;111;111
95;64;76;103
109;111;54;64
48;64;64;72
72;95;95;71
44;48;76;95
95;95;63;79
44;64;72;95
95;95;63;40
48;72;95;79
59;40;64;64
91;95;79;38
48;68;86;87
95;55;40;48
64;86;95;79
62;40;72;79
82;95;79;62
44;36;72;94
95;95;79;50
52;48;48;64
68;77;95;79
79;52;44;52
68;95;95;79
63;48;84;103
87;77;64;64
76;94;111;71
48;72;84;88
86;102;95;60
52;80;102;110
95;64;80;94
98;111;79;48
64;84;103;95
79;64;68;84
84;103;95;54
48;68;84;92
95;95;71;48
64;84;94;95
95;52;48;64
68;94;95;79
44;64;80;95
95;95;63;52
48;68;92;79
55;40;64;64
79;79;63;32
48;70;95;79
44;48;52;64
64;79;79;63
32;52;72;87
79;95;79;44
48;70;95;87
55;36;76;68
87;71;46;40
64;84;95;87
46;48;76;94
95;95;52;44
48;64;94;95
71;60;52;48
64;80;95;79
44;64;76;88
95;95;71;44
64;88;95;63
63;48;80;98
95;111;77;48
64;72;100;103
95;87;64;64
64;72;92;103
87;79;56;48
48;68;84;95
87;71;48;48
40;76;95;44
48;76;95;87
79;40;64;68
87;87;79;44
52;52;76;95
95;87;71;42
48;64;86;95
87;79;36;40
40;48;64;84
79;46;48;52
79;79;63;36
24;40;64;68
85;63;63;32
40;68;79;63
38;36;68;87
79;87;63;36
38;52;84;95
71;40;64;64
72;95;87;40
48;76;92;95
95;95;48;64
72;95;103;95
95;79;64;76
84;111;44;64
64;76;103;87
48;64;88;103
95;71;48;64
80;94;103;79
64;52;80;102
103;95;64;64
72;110;79;52
64;84;103;103
95;68;79;64
72;88;111;95
71;48;84;110
95;95;60;64
48;52;72;88
86;95;36;40
52;64;84;87
47;32;68;72
94;63;32;40
52;76;79;63
47;36;48;64
68;78;79;47
61;32;36;64
64;79;79;63
63;32;64;76
74;84;79;63
63;64;68;78
76;95;95;95
55;48;68;86
86;103;95;79
68;52;68;84
84;103;79;56
52;48;40;64
64;92;95;79
63;64;88;103
103;111;95;68
64;64;96;111
111;95;68;76
64;80;100;111
111;95;64;64
80;111;111;111
79;64;111;111
95;71;64;64
64;84;111;95
71;52;72;86
86;95;95;62
52;48;80;95
95;87;48;48
64;68;90;95
87;63;48;48
72;86;95;47
40;64;68;93
95;47;64;68
68;90;87;63
46;40;68;92
79;52;40;36
52;86;79;32
40;64;87;87
79;44;36;48
64;76;87;63
32;64;72;95
79;79;48;64
76;95;95;54
48;72;92;95
87;79;64;72
76;94;111;95
79;64;92;111
111;111;111;95
79;64;96;111
111;111;84;64
72;68;102;119
111;95;68;64
72;80;103;111
64;68;96;98
110;95;79;64
68;88;103;95
77;64;76;92
94;110;111;95
87;64;88;106
103;111;95;68
64;64;84;102
103;95;68;44
48;68;88;95
95;79;52;40
52;44;64;79
76;93;87;79
79;44;64;68
76;95;79;79
63;64;78;95
95;87;48;52
68;84;95;55
40;68;84;86
87;95;95;71
40;64;68;76
92;87;52;44
64;78;95;95
71;48;44;64
68;90;95;63
40;64;84;95
95;95;52;48
64;68;80;94
92;95;95;79
64;64;88;111
103;111;95;78
64;68;92;108
108;111;95;71
68;64;84;100
100;111;79;64
68;52;80;98
102;111;95;79
56;68;80;103
103;111;87;64
64;76;92;111
95;87;52;48
64;80;95;79
40;64;68;84
87;95;55;40
64;78;78;87
87;95;87;55
48;72;70;95
79;46;40;52
64;76;95;79
55;40;64;78
78;94;95;95
95;48;64;78
80;92;95;79
54;52;72;84
86;95;95;55
52;44;64;80
82;95;87;63
52;48;64;76
76;92;95;71
50;64;76;95
95;111;48;48
48;80;95;95
60;48;72;80
95;87;55;48
64;88;84;103
87;79;52;64
94;95;54;48
76;103;71;48
64;84;95;55
44;64;92;63
40;64;92;79
63;52;72;87
79;40;64;91
63;40;64;78
79;32;52;64
87;63;32;40
64;87;47;32
64;87;47;32
44;74;79;38
32;64;87;39
32;56;79;63
32;48;70;63
32;48;74;79
55;32;48;64
79;44;32;52
76;63;28;32
64;79;47;32
40;74;79;24
36;68;79;63
47;48;78;79
47;48;76;87
63;40;64;87
79;40;64;84
95;52;64;72
95;63;40;52
78;95;55;44
64;84;95;55
48;76;95;52
40;72;95;79
40;68;92;71
40;64;92;87
50;64;76;95
79;40;68;95
63;48;64;82
87;40;64;78
79;36;52;72
87;63;32;36
40;68;87;63
28;48;84;87
87;36;64;78
87;63;32;36
52;79;79;47
24;48;48;64
76;63;36;32
44;64;79;63
47;36;64;87
79;55;32;40
64;76;79;79
63;40;48;52
64;85;79;40
32;64;68;76
76;79;79;36
32;68;84;95
63;44;64;76
74;86;95;95
55;64;48;68
72;95;95;95
79;54;72;88
111;95;87;60
64;84;106;95
71;64;80;80
96;111;111;64
64;92;103;111
103;64;80;100
100;111;95;71
64;88;111;79
64;84;92;92
92;94;95;55
64;76;102;95
95;52;64;84
84;95;95;95
44;64;84;103
95;79;48;48
64;68;94;79
36;64;72;84
76;95;71;40
48;76;78;79
79;50;36;48
64;72;55;55
32;36;32;40
48;64;79;79
63;32;52;68
68;76;87;79
63;32;52;68
68;86;87;47
42;36;48;64
64;91;79;79
55;47;36;52
64;72;95;95
71;54;64;76
76;95;59;36
40;68;92;95
63;48;72;78
92;95;95;55
52;68;92;98
95;110;71;48
64;92;103;95
79;64;68;76
76;92;111;95
87;48;68;84
84;101;95;87
50;64;72;86
84;92;95;71
60;63;64;68
72;95;79;79
63;40;68;78
74;95;95;79
71;46;48;64
64;78;95;95
79;36;72;94
95;87;32;32
40;64;64;87
79;87;47;32
40;72;87;71
32;44;64;68
79;71;38;36
44;64;87;79
63;63;40;48
56;79;95;79
79;40;72;95
95;87;55;48
48;64;84;95
79;48;64;64
72;95;55;48
64;88;92;95
79;48;64;72
72;84;103;95
95;71;64;84
84;111;103;87
64;64;96;111
111;111;64;64
64;72;100;111
95;87;64;64
72;96;103;95
79;64;64;72
76;95;95;63
48;64;84;95
95;52;64;72
72;79;95;87
79;36;72;84
82;95;63;46
36;64;64;68
64;79;79;79
79;40;64;70
72;94;71;63
32;44;48;68
64;78;79;63
63;36;52;68
68;87;79;79
63;36;64;72
76;84;87;63
52;32;72;91
95;95;36;40
48;70;93;95
63;44;64;76
84;95;95;71
48;72;84;95
111;50;64;84
80;95;79;48
64;88;102;95
56;64;72;84
95;95;95;48
64;84;95;95
95;48;80;96
103;111;95;71
79;64;92;111
111;95;64;68
80;103;111;71
64;76;84;95
103;87;69;52
64;86;95;95
79;44;68;80
95;79;63;50
40;64;72;93
95;32;72;78
95;79;44;36
48;70;70;78
79;87;71;36
36;64;86;87
63;47;36;52
48;68;70;79
55;55;36;48
52;78;79;79
47;36;52;68
68;76;95;63
55;36;64;74
76;86;79;63
36;48;64;78
82;95;71;54
40;64;72;95
95;79;48;48
68;80;92;95
95;71;48;48
64;68;84;103
95;71;48;48
64;78;103;79
44;64;72;84
95;79;55;44
64;72;95;95
71;44;72;84
84;95;95;95
87;64;76;88
90;95;95;79
70;48;76;95
95;95;48;40
40;64;76;95
79;47;52;64
78;87;87;47
40;64;80;87
87;36;48;64
64;76;87;79
71;32;64;68
68;72;95;79
71;47;36;52
64;68;95;79
46;40;68;95
63;40;48;64
91;79;63;36
48;76;87;95
95;62;48;64
64;88;95;79
79;48;72;94
95;111;75;52
64;64;84;109
79;52;64;64
64;90;95;79
48;76;92;95
50;48;68;95
95;79;48;64
76;94;95;64
64;72;88;103
79;48;64;88
95;63;48;64
78;95;87;48
64;84;95;71
40;40;48;70
87;47;36;52
87;79;55;32
40;68;63;32
36;32;70;79
63;47;32;32
36;44;68;79
47;32;48;64
71;79;71;36
32;56;64;76
68;87;46;32
64;71;79;39
32;40;56;78
79;47;32;52
72;79;46;32
64;76;79;47
36;52;74;95
59;44;48;70
93;71;36;64
79;87;44;48
64;95;95;63
48;64;76;86
95;79;52;48
64;90;95;95
79;48;72;84
86;95;111;95
64;72;92;111
95;64;72;80
111;103;60;64
64;96;111;95
87;64;72;92
103;79;52;76
100;111;79;64
68;94;95;79
48;72;84;103
95;61;48;64
76;95;79;48
68;95;79;55
44;64;72;95
63;45;48;76
95;55;39;44
48;64;87;79
42;48;76;79
32;64;87;63
32;52;68;79
47;44;68;79
79;32;52;76
79;32;48;72
87;63;32;48
76;79;32;48
85;79;32;40
66;87;63;32
64;92;71;36
48;74;95;63
40;72;95;47
40;68;95;79
44;64;76;95
79;44;68;103
79;52;72;94
95;48;64;78
95;79;48;64
80;95;63;40
48;72;95;79
55;44;76;90
95;79;60;48
64;82;92;103
95;60;64;64
64;84;95;95
95;53;64;80
76;86;95;95
71;48;72;86
95;79;44;64
72;95;79;46
44;64;84;87
44;36;52;76
79;63;32;40
56;72;79;45
32;52;72;79
34;32;44;70
79;55;32;48
56;79;79;36
36;32;64;64
68;78;63;36
36;48;72;79
63;36;52;76
87;59;40;40
48;68;78;79
32;52;76;79
95;63;44;64
64;64;68;86
79;62;40;64
76;95;52;44
48;76;95;95
40;64;68;86
95;79;44;68
80;95;63;58
48;76;94;95
46;48;64;90
95;79;48;68
84;95;71;40
64;76;95;79
44;64;76;84
86;95;79;44
40;68;84;87
95;47;44;52
64;78;78;93
87;79;50;36
48;64;84;79
63;32;48;64
64;76;79;79
32;40;44;68
79;63;32;44
64;87;55;32
48;79;79;63
32;48;64;79
79;55;36;52
76;95;63;44
64;95;79;63
40;64;76;95
61;44;48;76
95;63;40;40
68;87;95;95
48;64;76;95
95;48;52;64
72;95;79;44
52;76;80;95
95;71;64;64
64;92;95;95
87;60;64;72
80;92;95;95
79;48;72;95
95;79;48;72
88;111;71;48
64;94;95;61
62;48;64;80
95;79;44;44
70;78;95;62
40;64;68;95
63;47;44;68
86;79;32;40
64;72;87;79
71;55;36;40
76;79;79;47
47;44;78;79
79;63;40;48
44;64;87;79
63;47;36;52
52;70;87;79
79;36;64;76
95;95;95;95
77;54;64;84
95;87;52;52
76;94;95;71
48;68;84;103
63;56;64;78
94;95;55;64
64;86;95;95
48;64;76;108
87;67;64;80
92;95;60;52
64;86;103;103
71;64;84;94
94;103;111;69
64;80;102;103
109;95;64;64
64;80;94;103
95;52;64;76
72;80;95;87
95;48;64;68
64;78;95;87
95;48;64;76
103;95;63;40
32;64;84;95
36;52;94;95
95;54;40;64
48;64;87;79
63;40;72;95
63;36;64;72
68;78;79;87
79;36;76;79
95;79;50;44
48;78;86;95
79;44;64;72
95;95;95;79
48;64;80;102
95;54;64;64
64;90;95;87
40;64;64;64
68;84;95;95
71;52;64;68
94;95;95;54
64;72;76;84
76;86;95;95
55;64;76;80
94;95;71;52
52;68;84;95
95;79;64;64
68;76;94;95
63;48;84;95
95;52;64;64
64;72;95;79
36;48;68;76
95;63;36;52
68;84;79;87
55;40;64;76
86;87;79;63
63;52;68;87
93;79;47;32
40;68;78;87
34;36;52;64
79;87;63;32
40;64;70;74
95;71;36;48
48;64;79;79
36;40;64;78
79;91;95;61
48;84;95;87
38;32;64;64
64;64;86;79
32;52;64;76
87;95;44;48
48;70;87;95
63;40;64;86
95;71;48;52
64;76;87;95
42;64;86;95
95;63;64;64
76;95;95;95
53;64;68;88
92;111;70;48
52;72;92;95
79;44;68;68
95;95;63;44
40;76;76;84
95;95;50;44
48;64;82;91
95;79;48;64
64;78;93;95
71;40;64;72
95;95;87;79
67;36;72;86
95;95;46;36
52;68;87;63
32;48;64;79
79;47;36;48
54;76;79;79
63;44;44;64
48;64;68;74
74;95;79;47
32;64;76;91
87;61;32;64
64;70;79;95
95;55;40;64
64;74;95;95
79;44;64;76
76;94;95;79
48;64;76;103
95;79;40;64
64;92;103;79
40;64;80;92
95;95;52;64
64;76;92;102
87;54;64;72
92;95;87;63
40;72;94;95
32;64;95;95
75;48;68;88
95;95;79;87
55;48;72;88
90;103;50;44
40;72;76;95
63;40;48;48
48;68;79;79
42;32;48;58
69;79;47;32
32;52;68;76
79;47;36;36
40;56;74;79
55;24;40;64
56;76;63;47
55;24;64;79
79;71;40;32
32;64;72;79
63;48;68;86
87;63;36;48
52;79;87;95
95;48;64;64
95;95;44;44
52;72;84;95
47;64;76;95
95;79;48;64
64;84;95;95
79;79;48;64
64;80;90;102
95;62;64;68
68;84;87;95
95;63;64;76
68;95;95;63
52;71;40;64
48;76;93;79
53;60;55;36
52;76;95;79
32;52;64;86
79;63;36;44
40;70;79;79
16;56;64;68
79;79;34;32
32;64;71;79
63;47;32;40
36;64;79;79
55;28;40;56
48;68;76;79
79;45;40;56
64;79;55;36
32;40;64;79
63;46;32;40
32;64;70;79
43;32;36;48
56;79;79;63
32;48;64;72
79;95;40;40
32;64;78;87
95;55;48;72
68;76;87;95
63;48;64;80
76;95;79;63
32;64;64;84
79;95;63;46
32;72;76;95
79;63;40;64
72;95;95;79
32;64;48;64
72;95;79;44
36;68;79;94
95;55;40;64
48;72;79;79
79;32;64;78
79;95;52;36
40;48;64;76
63;55;32;32
32;64;64;79
55;32;32;32
32;64;63;63
8;36;48;71
79;39;32;40
32;52;71;63
63;63;32;40
32;52;76;79
79;36;32;48
44;70;79;79
28;40;48;64
52;76;79;79
39;36;64;84
79;63;40;48
72;94;63;32
36;68;78;95
95;63;64;72
68;86;95;95
87;54;64;80
72;103;95;79
64;48;76;94
95;95;52;48
48;52;76;95
79;44;64;64
68;95;40;40
48;72;86;95
95;63;48;64
64;84;95;87
95;38;64;86
95;79;40;40
40;64;72;87
55;36;48;64
68;79;63;36
53;32;64;64
56;68;79;55
16;52;52;64
52;68;79;34
16;40;60;71
63;32;31;20
32;48;64;77
79;36;48;68
71;79;63;36
36;32;48;64
70;79;47;32
20;44;68;79
24;36;64;70
79;79;32;36
36;64;76;79
79;55;36;48
40;64;64;79
87;63;55;32
32;52;72;87
63;44;48;64
64;76;87;87
79;40;64;72
78;95;63;36
36;64;95;79
32;52;68;78
95;63;32;48
40;64;68;79
71;38;32;48
40;56;68;79
79;32;40;48
48;70;79;63
79;63;32;52
48;64;79;87
79;32;52;78
87;36;36;48
44;52;79;63
16;32;52;64
79;63;32;36
32;52;68;79
31;32;32;40
40;60;64;79
55;24;32;48
36;52;68;79
63;38;40;48
52;79;63;55
32;64;76;95
55;40;48;52
48;64;76;79
39;40;64;76
95;71;40;64
64;72;95;79
32;52;68;95
79;40;64;64
64;90;95;71
32;64;64;76
94;95;36;48
52;68;86;95
95;59;48;72
68;72;95;95
95;52;68;76
95;44;64;88
95;79;48;64
78;95;52;48
78;95;47;40
64;87;79;55
40;64;84;63
36;48;70;87
63;32;64;79
63;36;64;79
63;32;48;78
79;36;40;68
79;34;40;64
79;47;32;64
76;63;32;40
64;79;47;48
64;79;63;32
32;64;87;79
36;64;78;71
47;52;78;95
63;48;64;94
79;48;68;90
95;47;64;76
95;60;52;76
95;54;52;72
95;71;40;72
84;95;63;40
64;88;95;50
48;72;95;63
44;72;95;79
48;72;95;71
44;64;80;95
79;48;76;95
79;48;72;84
95;71;40;64
86;95;44;40
70;95;44;36
64;91;55;32
32;64;74;87
47;32;40;64
56;76;79;55
20;52;56;52
64;79;63;30
16;48;56;70
63;63;20;32
40;68;63;47
32;32;48;64
71;79;20;32
24;48;68;77
23;32;52;60
70;63;36;24
36;56;64;68
79;55;28;32
32;64;79;79
47;36;52;70
79;63;36;32
32;68;79;79
32;44;64;74
87;87;32;40
36;68;72;79
95;79;44;48
40;66;79;95
63;40;64;86
95;61;40;52
78;95;79;36
32;48;64;68
94;47;36;48
32;48;68;78
79;16;48;68
79;63;63;47
32;56;76;79
63;32;52;64
72;79;28;32
32;40;64;79
79;55;24;32
32;48;62;79
79;63;32;36
32;52;64;76
63;30;40;52
48;78;63;30
20;48;68;63
63;32;56;64
77;54;16;32
40;52;48;64
79;47;24;48
40;64;76;79
79;79;40;36
44;56;64;68
78;79;36;36
52;72;78;95
87;63;64;78
95;54;40;52
64;92;95;79
32;64;72;92
95;79;52;64
64;76;86;95
79;58;64;68
72;95;63;46
40;72;84;95
38;48;64;76
91;79;40;52
48;76;87;95
63;47;48;64
56;64;87;79
79;36;64;72
87;63;63;32
40;72;79;63
24;40;48;66
79;63;55;32
24;56;64;74
79;47;24;32
32;48;63;63
63;55;40;48
44;52;79;55
16;40;64;79
47;32;40;48
64;79;79;47
55;40;36;48
64;79;63;38
20;44;44;56
68;79;55;32
24;64;64;68
85;79;32;52
52;68;87;87
79;54;52;76
78;95;95;87
64;48;68;92
95;79;44;44
64;76;94;95
63;48;68;88
95;71;48;48
64;84;95;95
63;48;64;80
86;95;71;52
44;64;68;86
87;63;44;64
64;76;95;63
32;64;64;87
87;55;36;40
48;64;78;79
79;34;40;56
52;64;78;79
63;61;48;64
64;78;63;55
36;32;72;63
22;32;48;68
77;30;36;64
77;76;79;79
36;40;64;79
63;47;36;40
64;79;87;63
47;40;52;68
78;95;63;32
32;52;87;95
79;63;48;64
68;72;87;95
95;71;64;68
68;84;95;95
95;79;64;64
64;80;95;109
95;79;64;68
64;72;68;84
95;103;52;64
52;64;76;95
95;63;48;68
64;84;95;71
54;64;76;94
79;44;48;68
64;87;79;36
40;78;87;95
55;40;64;78
95;87;36;36
40;68;74;87
47;32;40;50
44;48;79;63
16;40;48;66
79;63;79;28
20;40;56;71
79;47;32;44
48;56;76;79
63;36;64;87
79;32;52;68
70;87;47;32
48;48;52;64
56;72;79;55
20;40;52;68
79;55;32;36
40;64;78;79
47;32;48;64
60;78;79;79
59;40;64;76
95;44;40;64
48;64;79;87
47;48;52;64
87;63;36;36
36;64;79;87
87;46;40;52
56;72;79;87
87;40;52;68
79;79;79;55
32;64;72;92
79;44;32;40
48;86;55;32
32;64;68;72
79;79;63;36
32;48;64;86
87;63;36;48
48;56;78;79
79;79;46;32
32;64;70;76
79;79;47;32
32;32;40;56
64;79;24;20
16;40;56;71
63;39;24;40
36;52;62;79
79;24;32;36
32;54;60;71
79;63;32;40
64;87;47;39
32;64;78;79
35;48;64;68
79;87;71;38
32;48;64;72
87;87;44;40
36;64;68;92
95;79;48;64
64;76;79;87
95;95;87;48
40;68;84;92
95;71;64;68
76;79;90;95
95;87;44;64
64;64;72;95
95;79;40;68
64;76;94;95
95;63;48;64
64;76;87;63
32;52;68;79
63;40;64;68
76;79;44;32
64;79;47;32
64;79;47;24
40;64;79;63
32;44;72;63
45;32;64;79
79;32;52;79
79;32;48;64
64;79;44;32
52;78;79;36
48;70;79;55
36;64;84;93
87;40;64;92
87;40;64;70
84;79;36;48
64;95;63;36
64;90;87;54
48;72;95;79
44;72;95;79
54;64;78;95
95;52;64;76
95;78;48;72
92;95;54;48
80;95;79;48
68;92;95;55
44;68;86;95
77;48;72;95
87;48;64;72
87;79;40;40
76;95;44;52
64;86;87;55
40;64;92;63
40;64;87;71
40;52;72;87
79;36;48;78
87;36;48;74
79;38;44;74
79;32;48;78
79;32;48;78
79;32;48;76
79;32;52;68
79;47;48;48
64;87;63;32
24;64;64;72
78;87;62;32
32;52;56;64
76;71;39;32
32;52;56;68
79;63;32;36
32;48;74;79
87;55;36;52
64;72;79;63
32;52;64;84
95;62;36;44
48;86;95;47
32;52;68;84
95;79;55;36
36;64;79;95
47;48;44;64
87;87;36;36
32;64;72;87
47;32;48;56
70;79;63;24
20;44;68;78
63;32;48;60
75;79;47;32
32;70;79;63
22;48;44;56
64;79;34;20
20;40;60;71
79;55;24;32
44;48;56;75
63;47;32;48
58;68;63;63
28;32;44;64
79;36;44;44
32;40;52;77
63;38;24;32
32;52;64;79
47;24;32;40
52;79;45;32
24;48;64;79
79;79;38;32
32;56;64;78
79;63;32;36
32;64;79;92
47;40;64;79
63;36;48;52
64;79;95;63
32;64;68;78
94;47;40;64
68;91;95;87
63;44;64;78
95;95;40;40
32;68;72;95
47;36;40;40
64;76;79;24
24;52;56;76
79;79;79;38
32;56;64;79
87;79;42;32
32;48;44;52
64;79;63;24
16;36;72;79
31;32;48;68
63;30;16;32
32;40;52;71
55;20;20;32
44;71;63;20
16;48;56;79
63;35;32;48
48;48;52;64
76;63;24;32
32;52;71;79
47;32;48;66
79;79;32;32
64;72;78;87
79;36;48;64
68;86;87;63
38;64;72;92
95;95;48;64
64;76;90;95
95;79;52;64
64;76;95;79
47;64;72;88
95;56;48;48
64;95;63;36
32;64;76;84
79;79;36;48
76;92;63;44
32;52;64;76
87;36;36;52
68;79;32;36
32;52;64;79
79;79;24;32
32;48;60;70
79;63;32;36
44;52;79;63
32;38;32;44
52;64;79;63
39;32;52;68
79;44;40;44
56;79;63;28
20;40;64;68
78;63;34;24
32;52;70;79
87;79;47;32
32;64;78;87
79;79;40;64
64;72;95;95
87;48;48;64
64;64;76;95
95;79;64;64
72;84;95;95
63;64;64;76
86;102;79;54
64;68;80;95
79;48;64;64
64;95;79;36
36;72;87;95
47;48;64;72
95;95;53;36
32;64;68;86
87;55;48;64
68;76;79;55
32;52;64;68
87;79;32;32
32;48;64;78
79;63;32;40
40;56;78;79
63;63;24;36
32;48;64;74
79;24;40;52
62;79;39;24
24;44;60;79
63;32;48;64
70;55;32;44
56;64;79;63
45;32;40;64
79;79;32;40
48;85;47;32
24;48;56;64
70;79;39;32
36;48;48;64
72;79;63;32
32;48;40;52
60;76;79;32
24;40;64;64
79;87;87;47
32;52;48;64
68;87;47;32
32;40;66;79
79;79;47;32
32;48;64;79
79;79;39;32
32;48;64;74
79;55;40;64
79;79;32;32
32;68;79;39
28;52;68;79
79;63;32;36
36;56;74;79
63;32;32;48
68;79;46;24
20;32;48;60
63;31;24;32
44;71;47;16
20;40;52;71
71;63;55;20
20;40;48;56
64;79;31;16
20;32;52;60
71;79;37;32
24;48;64;79
79;47;36;48
56;72;79;87
79;79;54;36
44;64;90;95
63;44;48;64
72;86;79;54
36;64;68;79
95;58;40;48
64;78;95;79
47;64;64;64
76;95;61;32
32;64;64;70
78;87;32;40
40;64;68;78
79;79;32;32
32;52;64;70
79;55;32;32
32;40;52;68
75;63;32;44
48;64;63;79
79;32;32;44
68;79;63;39
32;32;48;64
79;30;24;32
20;40;40;54
63;63;16;20
32;68;47;12
16;32;52;60
63;63;20;32
32;36;52;64
70;79;28;20
16;48;52;66
70;79;20;36
64;79;59;44
24;40;64;79
63;36;36;44
64;86;63;32
46;40;48;56
64;87;79;44
32;64;68;84
94;79;48;64
76;86;79;55
40;64;68;84
95;62;40;64
68;95;87;47
40;64;68;76
91;79;40;40
44;64;78;86
63;36;64;84
79;55;36;48
64;76;79;79
36;36;52;64
79;79;47;32
24;48;64;70
79;55;32;20
24;48;56;56
79;31;20;24
40;48;54;66
71;31;20;24
32;40;63;77
63;63;29;32
32;48;71;79
63;43;32;48
70;79;43;24
24;48;70;79
47;32;48;64
72;63;32;48
78;79;32;52
64;87;55;32
52;78;79;39
48;76;95;63
44;72;95;79
48;68;95;87
55;64;86;95
79;48;80;95
58;64;86;103
87;48;76;103
95;52;76;94
103;70;52;80
107;79;48;64
68;95;79;54
52;80;95;60
64;84;95;55
44;64;94;79
40;64;92;63
40;64;82;79
36;64;86;79
52;48;80;95
63;48;76;87
63;40;64;90
63;40;68;87
71;40;64;78
87;63;32;68
87;63;32;48
56;79;79;47
36;64;78;87
38;52;79;79
44;48;72;87
87;40;52;80
87;36;48;64
76;79;44;36
64;91;79;44
48;84;95;63
48;72;95;63
64;84;95;56
64;76;100;79
44;76;88;95
79;64;64;84
95;95;71;48
64;52;64;72
76;94;87;46
38;48;64;72
95;79;47;40
48;64;70;86
79;46;36;36
36;40;64;64
78;79;42;20
36;32;40;52
68;79;22;32
32;48;63;77
63;39;36;52
79;24;24;16
16;24;44;63
39;32;46;56
63;63;16;32
32;48;63;63
55;28;24;40
63;63;16;32
44;56;63;55
28;24;40;52
79;63;36;24
40;52;64;74
79;79;32;32
32;40;56;64
78;63;24;40
40;64;87;63
28;32;48;68
95;55;32;36
40;64;76;87
63;40;36;48
56;64;78;87
47;36;52;64
82;95;79;44
32;64;64;76
86;95;36;48
64;68;76;72
87;87;47;32
36;64;64;76
79;87;38;32
36;48;64;68
74;79;24;32
32;40;54;70
71;79;20;32
32;40;48;52
63;63;47;16
16;32;44;52
63;63;18;24
36;58;71;79
79;36;32;48
56;70;63;55
32;32;32;52
64;79;79;79
46;32;52;72
95;63;36;32
32;44;64;79
79;34;36;52
64;87;55;32
32;48;64;68
79;63;32;40
44;64;74;87
79;63;48;64
79;95;63;59
48;44;64;87
87;44;48;64
86;95;54;48
52;64;68;76
91;63;40;64
78;95;40;40
48;48;64;87
79;32;40;64
70;87;38;32
32;40;48;60
64;79;22;32
32;32;56;71
79;47;32;48
79;63;28;32
32;68;79;55
31;32;48;64
74;79;22;32
32;40;56;71
77;63;20;44
60;68;63;47
26;32;40;60
79;46;20;32
32;56;76;63
39;32;64;64
87;63;32;40
48;48;64;68
79;79;79;42
36;40;64;68
87;79;38;40
40;48;64;64
79;79;36;32
32;48;56;76
79;79;32;48
64;87;55;47
32;64;68;95
63;36;52;68
78;95;36;48
52;64;76;95
87;79;48;64
80;95;87;87
62;48;64;92
103;50;44;64
64;84;79;53
34;48;64;68
87;79;38;32
40;48;79;79
55;32;48;64
87;55;24;32
40;66;74;79
47;32;24;36
44;52;71;63
31;20;36;52
62;55;26;16
20;36;36;44
58;71;14;16
24;32;44;56
63;39;12;20
24;44;44;60
63;39;16;32
36;40;56;68
71;63;32;48
64;79;63;55
36;44;64;79
79;47;32;32
32;40;48;64
87;47;24;32
36;64;76;87
55;32;64;64
87;79;46;36
36;40;56;64
68;87;79;79
55;48;64;72
95;46;36;64
79;79;47;47
32;64;70;87
63;32;48;64
68;87;39;32
32;44;48;48
63;79;47;20
24;32;48;60
70;71;79;45
36;32;44;52
64;79;30;20
32;36;52;56
63;63;18;32
44;56;63;71
79;47;36;20
20;32;36;44
48;71;20;16
16;32;40;36
52;63;47;12
16;36;44;44
79;39;20;36
44;44;56;76
63;63;32;44
48;64;76;87
63;44;40;64
79;79;47;36
40;68;86;95
95;79;52;48
64;68;80;95
79;48;64;76
103;79;71;48
48;52;72;88
95;95;48;48
48;64;78;92
95;95;44;52
64;76;95;95
79;48;64;72
94;95;55;44
40;52;64;86
79;44;40;40
64;78;79;63
47;40;68;68
87;79;38;32
32;40;52;56
76;79;26;32
40;40;60;72
71;79;32;24
32;32;44;52
66;79;22;24
32;36;52;74
63;79;47;32
32;36;52;68
76;79;24;40
40;44;68;66
79;79;55;32
36;32;56;64
76;87;63;32
36;48;52;64
76;79;32;36
40;52;79;79
79;44;36;48
68;87;55;32
40;48;76;87
63;40;48;40
64;78;95;55
53;64;87;95
48;64;92;87
63;48;72;76
92;79;40;68
86;87;40;48
70;95;63;36
64;93;63;36
48;76;79;47
40;64;87;79
63;36;52;79
87;42;36;64
64;79;63;32
44;76;79;63
40;64;87;63
36;44;70;79
79;32;52;68
79;55;32;56
79;63;32;48
72;79;38;52
72;79;36;36
64;87;63;32
48;78;79;55
40;72;95;79
46;64;76;95
87;44;68;78
95;71;48;68
95;79;44;64
76;95;79;48
64;80;95;95
48;68;94;95
79;64;84;110
87;64;76;109
95;64;76;80
103;95;64;76
98;95;52;64
76;103;95;52
56;48;64;68
72;94;95;79
63;48;48;48
64;76;79;32
32;40;64;68
76;55;32;48
56;64;79;39
28;40;40;64
79;55;20;32
32;36;52;77
47;20;20;16
20;16;40;63
63;16;16;40
32;52;63;47
22;24;32;36
54;63;79;39
30;24;48;48
64;79;38;16
32;32;32;48
62;71;31;20
32;32;16;16
20;32;44;68
63;23;24;32
44;71;55;20
32;32;32;32
36;56;70;63
47;32;36;56
68;63;32;40
64;79;47;46
36;36;52;74
95;55;36;52
52;68;86;79
63;44;64;72
95;63;40;44
40;48;64;70
84;47;32;44
48;56;71;79
79;39;32;48
64;74;63;55
32;36;40;64
79;63;39;32
36;56;64;79
63;32;36;48
64;79;47;30
28;32;44;56
75;63;24;32
36;48;71;79
79;39;32;64
87;63;38;32
32;36;52;76
79;28;40;44
56;70;63;36
39;32;48;64
64;87;32;32
44;56;74;74
79;87;55;32
36;44;68;76
79;79;63;32
40;48;64;64
76;95;79;32
32;64;87;95
95;79;52;48
64;64;95;95
87;52;64;80
111;87;52;48
52;64;84;95
79;64;64;64
68;95;79;52
52;44;64;68
68;87;87;46
44;40;52;64
95;63;40;32
64;64;78;79
79;32;48;64
95;42;32;48
64;79;79;55
46;36;32;32
32;32;48;76
63;20;32;36
48;71;47;12
28;16;32;40
54;63;63;39
39;20;36;48
60;79;20;32
36;44;62;71
63;55;24;36
64;79;44;32
32;52;64;79
63;47;32;32
36;48;56;78
79;44;32;44
56;79;79;44
44;32;52;64
76;87;38;40
40;40;64;68
76;63;36;64
87;87;53;32
40;64;76;95
63;40;48;64
79;95;87;54
50;52;48;64
72;93;55;32
40;40;56;68
78;79;36;32
32;44;52;54
79;63;34;24
32;36;48;52
77;63;22;32
48;71;63;63
30;32;40;64
79;45;20;24
44;71;71;79
63;36;24;32
40;64;79;63
47;32;40;52
56;79;63;47
47;40;48;56
78;79;39;32
32;36;48;64
79;79;36;32
40;52;64;70
76;63;32;48
64;79;71;63
32;52;64;72
95;47;36;32
36;36;52;78
79;47;36;52
64;79;55;32
36;52;68;84
79;32;48;76
95;63;47;36
44;48;64;84
95;71;63;40
55;48;64;78
95;63;36;48
40;72;79;63
55;36;64;64
87;79;44;32
40;36;56;64
79;79;55;24
32;32;44;52
68;79;31;16
24;32;52;68
71;79;34;20
32;36;60;70
63;79;26;32
40;44;68;79
63;47;20;36
56;70;74;79
63;32;32;52
64;63;34;26
36;48;56;79
63;32;40;48
60;70;79;47
47;32;52;64
79;78;79;47
55;40;48;52
70;79;63;36
44;40;48;48
56;79;55;32
36;40;64;68
76;95;40;32
40;48;76;79
79;79;40;68
95;79;55;40
64;80;95;79
63;44;40;32
48;70;87;79
71;40;48;52
68;93;55;32
36;36;64;64
78;63;39;32
36;36;52;64
60;77;39;16
40;68;63;47
16;44;52;71
63;22;24;32
56;71;20;16
20;20;44;44
63;22;16;24
32;56;63;63
47;22;44;68
79;26;32;36
40;56;74;63
55;20;32;40
52;79;39;24
36;48;79;79
63;32;36;56
76;79;63;36
24;68;87;79
63;40;36;32
44;44;64;86
95;38;48;64
68;78;87;63
63;44;48;64
68;90;95;63
63;48;52;48
76;95;79;40
46;48;64;68
90;95;40;44
52;64;72;78
79;95;52;36
44;32;48;52
74;79;34;32
32;40;52;64
77;79;24;32
32;44;60;56
48;64;77;63
55;32;32;32
44;70;68;79
63;32;32;24
40;64;79;47
47;32;48;64
77;63;32;56
72;63;32;44
48;76;63;32
48;79;79;36
44;78;63;32
40;64;79;61
40;64;87;79
38;52;78;95
46;48;78;95
79;44;64;84
95;46;64;86
95;48;64;64
78;95;54;48
72;95;62;52
76;95;50;64
76;95;63;64
68;95;79;48
64;90;95;68
48;72;88;103
79;48;72;95
87;48;68;95
95;44;68;94
95;54;48;80
95;63;44;52
64;87;71;36
40;68;87;63
36;48;70;87
61;32;52;79
79;32;52;78
79;32;48;68
79;55;32;56
79;63;32;36
40;71;63;28
40;68;63;32
32;64;79;63
32;56;76;79
36;48;70;87
79;32;48;68
87;38;44;78
87;46;36;40
56;79;47;32
36;44;64;64
76;63;32;52
68;87;55;47
63;36;48;64
95;79;47;32
40;64;68;93
95;40;40;48
64;87;63;36
44;40;64;64
95;63;38;40
56;64;68;68
87;79;36;40
44;40;48;52
64;79;79;47
47;32;64;64
64;79;63;45
43;32;48;56
78;87;47;32
36;40;52;56
76;63;47;24
32;40;64;76
63;24;32;56
79;63;38;20
32;48;56;75
63;24;32;36
40;62;63;28
35;24;36;40
48;71;31;16
24;24;48;56
79;45;16;40
64;71;63;47
24;40;48;68
79;32;32;40
64;64;79;63
44;32;32;36
52;76;63;47
47;32;48;56
66;79;79;36
46;36;52;68
87;79;40;40
48;56;68;68
95;63;32;64
72;76;79;46
44;64;68;95
79;40;36;48
74;87;63;32
40;40;52;56
68;79;55;24
32;32;56;52
64;79;63;24
32;32;44;48
60;79;47;22
32;20;36;44
48;70;63;47
47;20;40;40
74;63;47;20
32;32;48;64
79;45;20;36
52;64;71;63
47;32;44;68
79;47;24;32
44;64;71;47
55;32;44;48
70;79;47;24
36;48;64;72
87;63;32;40
64;78;79;79
59;40;64;72
95;79;63;47
63;52;64;72
95;87;52;40
48;68;72;95
95;48;44;36
48;64;76;94
95;67;44;40
64;84;71;40
46;40;48;64
76;87;47;32
40;64;68;78
87;32;32;64
76;87;45;32
40;48;48;68
79;55;32;32
48;68;79;63
63;32;44;52
84;79;39;36
52;64;79;87
79;55;32;48
68;87;79;63
32;52;64;87
87;47;32;48
48;70;79;79
63;32;32;40
48;64;79;63
63;32;48;66
87;55;32;40
64;76;63;32
36;32;48;70
87;47;32;36
36;40;52;70
79;43;32;36
48;68;79;47
47;32;44;48
56;79;55;32
36;44;68;79
79;32;40;64
95;63;61;40
44;64;64;82
95;52;44;48
64;84;79;32
50;40;52;64
79;92;55;32
44;52;68;87
79;54;36;64
95;63;36;32
48;68;76;79
63;32;40;56
64;79;47;32
40;52;78;70
79;63;32;32
56;64;79;63
55;32;40;64
87;47;32;24
32;32;48;71
63;20;20;32
40;71;63;38
39;24;40;40
44;56;78;63
47;20;52;48
56;70;79;79
63;32;32;32
44;64;79;79
63;44;52;64
79;63;32;40
64;79;87;79
61;48;64;82
95;71;40;40
52;72;95;63
79;52;48;64
72;94;71;40
52;64;86;95
95;48;40;68
92;87;71;44
52;80;95;95
87;48;64;64
80;95;55;48
64;72;86;92
95;63;40;48
64;72;79;63
36;44;48;72
95;63;32;32
44;70;63;28
32;32;32;32
56;78;55;20
32;32;40;36
40;56;63;63
63;16;32;40
48;62;79;63
55;32;32;40
48;71;47;20
32;32;48;64
71;55;32;52
79;47;32;36
52;60;70;79
63;32;36;48
60;70;79;63
79;36;36;40
64;70;79;47
47;36;32;36
40;48;64;78
79;47;32;40
52;68;70;79
79;32;36;48
68;79;87;47
59;40;44;48
64;76;63;38
44;64;79;86
95;47;64;78
94;47;48;52
64;87;95;79
79;44;48;48
64;86;95;63
63;36;48;64
68;87;63;32
36;36;40;52
56;79;47;24
32;32;56;66
79;47;32;52
78;63;47;24
32;48;48;70
79;35;32;32
40;70;39;16
22;32;52;48
60;70;63;45
47;24;48;56
70;79;45;24
32;32;52;48
64;75;63;26
36;32;32;48
48;70;47;20
28;40;44;52
66;79;36;32
36;48;56;64
79;71;32;48
68;79;63;47
32;64;72;95
95;44;48;64
68;95;63;40
52;64;76;78
95;87;71;40
48;48;78;90
87;71;44;72
86;79;40;44
64;72;79;47
47;40;48;64
68;79;47;32
36;36;52;64
79;63;28;32
44;64;76;79
63;20;56;70
87;43;32;36
48;68;63;34
39;32;40;48
62;79;47;20
30;32;44;44
64;63;31;24
32;48;63;63
63;24;40;64
87;63;46;32
44;32;40;64
87;63;47;42
47;32;44;70
95;47;32;40
64;87;63;36
47;32;48;52
76;79;54;32
40;40;48;56
70;79;55;32
36;40;64;64
79;32;48;72
87;42;48;68
94;46;40;64
94;63;40;64
64;93;55;40
64;93;63;40
48;76;95;63
44;64;80;95
40;64;76;92
79;40;72;87
63;40;64;72
95;55;36;64
95;47;40;72
93;47;40;68
87;55;32;64
79;55;32;64
79;63;32;52
70;79;39;40
52;79;47;32
52;79;47;32
64;63;26;40
68;63;20;40
68;63;24;44
76;63;24;44
70;63;24;48
64;79;36;36
44;74;79;32
44;72;87;39
48;68;87;63
40;64;87;95
46;64;68;87
95;55;48;68
80;95;55;48
68;95;71;48
64;82;95;63
52;80;95;79
48;68;76;95
95;44;64;84
87;44;64;87
95;71;48;48
64;76;95;44
54;40;48;64
64;64;76;87
79;32;32;40
52;74;63;47
55;32;40;48
54;64;78;79
63;32;52;64
64;70;63;24
32;36;48;64
71;63;30;32
32;40;56;68
63;63;63;39
46;32;40;44
52;79;39;20
36;48;62;71
78;79;55;32
32;32;48;48
56;79;79;47
54;32;32;32
40;52;64;79
79;47;32;44
56;78;55;32
40;32;44;32
64;79;63;32
36;40;56;64
71;79;63;32
40;64;78;90
95;63;40;64
80;79;55;46
55;48;84;95
95;54;64;64
64;86;95;79
79;44;48;48
64;76;79;36
44;40;64;64
72;87;42;32
44;52;70;79
79;55;32;52
76;87;79;44
32;52;78;79
79;32;36;36
44;52;76;79
63;36;32;32
48;70;63;47
47;24;32;40
52;68;47;16
28;16;36;40
52;54;63;55
55;20;32;40
58;71;63;34
44;24;32;40
52;70;28;32
48;64;79;63
32;40;48;64
87;79;63;32
40;40;64;86
95;38;36;40
64;84;79;47
55;40;40;48
64;87;46;36
40;40;52;48
68;79;55;32
40;36;64;64
74;64;79;95
79;42;44;48
64;68;87;79
79;36;40;36
56;72;86;79
79;36;44;64
78;79;63;32
48;84;87;63
36;40;52;74
87;63;32;32
40;64;79;47
55;32;36;52
56;56;79;55
63;24;32;32
40;52;64;79
63;28;32;40
48;71;63;28
39;28;32;32
48;63;79;63
63;32;40;48
64;79;62;32
40;32;36;40
52;72;63;28
36;32;64;64
79;79;42;32
48;64;79;79
63;32;72;95
95;36;48;64
78;87;63;32
44;36;68;72
79;87;71;40
48;68;95;95
79;48;52;72
84;95;79;79
79;48;64;80
111;47;44;48
64;78;95;63
50;36;68;64
76;87;63;36
40;36;64;64
64;68;70;79
95;47;32;36
48;64;72;79
79;46;36;48
52;64;79;79
79;44;32;40
40;64;79;63
63;45;32;32
32;52;64;79
63;39;32;32
40;52;60;76
79;34;32;36
32;60;68;79
79;42;32;32
48;79;63;24
36;48;32;44
56;79;46;32
32;36;52;60
70;79;78;87
87;40;36;32
48;66;79;63
63;36;48;64
95;79;63;40
64;95;79;63
54;48;64;80
95;95;79;77
44;72;102;95
95;48;64;64
64;86;95;79
78;48;48;64
72;95;79;60
48;48;52;64
76;86;79;46
55;40;64;64
76;63;32;48
72;79;63;42
32;48;52;68
87;55;40;52
56;70;63;34
32;32;32;36
40;62;63;47
47;32;40;36
48;77;31;24
32;48;71;79
63;28;24;44
56;76;63;63
32;32;40;64
87;63;32;32
48;66;79;45
47;32;36;48
48;68;79;63
79;36;32;40
56;68;79;79
79;32;64;68
80;95;55;40
64;86;95;79
95;48;64;76
103;79;64;64
72;92;103;79
79;48;72;76
94;95;71;48
64;72;103;95
55;48;52;72
95;79;50;40
48;76;84;95
95;44;40;48
48;72;95;63
79;32;48;64
76;87;63;32
40;48;64;68
78;79;47;32
40;44;72;78
79;32;32;32
52;68;63;63
28;32;36;52
79;63;28;16
40;52;56;78
79;46;36;44
52;60;64;74
79;47;32;36
32;52;64;78
79;47;38;32
36;68;79;63
63;32;36;48
64;74;79;47
63;36;36;48
72;87;63;32
48;64;78;86
87;95;44;52
72;84;95;95
48;64;76;103
111;66;48;64
64;76;92;95
95;56;64;64
94;95;95;52
64;64;95;111
54;68;95;95
71;64;72;80
95;63;64;76
95;63;48;64
68;95;63;48
64;93;79;47
40;68;95;79
40;64;76;95
55;44;68;92
79;36;64;78
79;32;52;70
87;61;32;64
76;79;32;48
64;79;38;32
36;68;79;79
36;48;72;87
44;48;64;87
79;32;48;64
87;55;36;64
79;79;38;48
52;79;79;32
48;76;87;63
40;52;76;95
79;40;68;95
71;44;68;90
95;52;64;68
78;95;55;64
80;95;71;52
64;86;95;79
64;80;103;95
52;80;96;111
79;64;84;102
79;64;72;95
103;62;64;84
103;71;48;76
95;79;44;64
76;95;55;64
87;79;40;64
72;95;53;48
64;86;63;44
32;64;86;87
87;36;64;48
64;79;71;32
36;32;56;64
79;47;20;40
68;79;63;55
28;32;44;64
79;63;28;32
36;70;79;63
63;36;40;72
87;63;32;48
70;79;95;34
52;64;95;63
46;64;76;86
95;63;44;64
84;91;95;48
64;80;95;79
54;64;72;95
95;54;64;76
95;103;95;65
64;64;64;80
103;87;58;48
64;76;94;103
111;66;70;48
64;68;88;111
111;64;48;64
64;80;90;95
95;60;48;48
64;76;95;95
79;55;48;48
68;80;87;63
71;36;64;64
76;87;63;36
40;48;68;68
79;79;55;32
36;40;64;68
79;63;39;32
48;64;64;78
79;55;39;32
48;52;78;63
63;32;36;52
79;79;32;20
32;64;74;79
87;36;32;32
40;64;79;47
47;20;48;56
64;76;63;32
36;40;64;70
87;47;42;36
64;70;92;93
95;42;40;64
76;92;95;95
95;56;48;76
100;95;71;54
58;64;80;103
111;68;64;48
48;84;100;111
111;64;64;64
68;88;103;71
71;48;76;84
103;87;44;64
84;103;62;40
48;64;76;87
95;63;36;48
48;78;95;63
63;40;36;32
48;64;71;87
95;38;36;32
40;36;48;64
79;63;36;32
32;66;79;63
79;32;40;48
68;79;55;32
32;36;68;64
79;28;32;48
79;63;39;20
32;56;60;79
87;36;32;32
40;64;79;47
47;32;32;32
64;79;55;32
36;56;79;87
63;63;32;64
72;79;38;32
40;40;56;74
95;46;36;32
48;86;79;40
44;64;86;92
87;79;71;48
64;64;84;95
79;52;72;95
79;48;68;84
95;95;63;52
68;76;95;87
54;64;72;94
87;48;72;94
79;44;52;72
95;79;46;40
64;64;84;95
95;79;48;64
64;87;63;40
40;40;48;52
76;79;47;32
40;44;79;79
79;47;32;40
64;78;79;63
45;36;48;64
87;63;32;32
32;48;71;79
79;32;32;36
56;48;70;79
79;32;40;48
72;79;79;36
36;32;64;76
79;55;42;40
70;79;79;44
44;48;64;78
95;63;36;36
48;79;79;63
71;40;40;48
48;68;87;63
79;40;44;64
64;84;79;55
63;32;64;72
95;79;36;52
76;93;63;46
44;40;72;87
95;79;54;36
48;64;68;95
95;36;64;68
92;79;44;40
64;72;79;63
54;32;44;64
79;79;63;32
36;32;48;64
79;63;38;20
40;44;66;79
79;47;32;24
48;64;79;39
39;32;64;64
79;63;24;36
56;74;63;55
16;48;64;76
87;22;32;32
40;66;79;63
79;32;40;48
52;48;79;63
63;32;64;76
79;87;62;36
52;72;87;95
53;52;72;95
79;48;68;86
95;79;48;72
103;47;48;64
92;102;95;60
48;64;80;78
103;79;48;64
95;111;62;48
64;88;95;87
62;64;68;76
95;63;44;48
72;95;71;46
32;68;84;95
95;50;40;44
40;72;87;79
63;40;52;64
64;76;87;63
63;48;76;86
79;55;32;48
68;87;63;32
52;64;79;63
39;36;56;64
79;55;32;40
70;68;79;47
32;56;76;79
55;32;64;70
87;79;36;48
74;79;95;46
36;64;72;94
95;63;36;40
48;76;87;79
79;40;48;52
52;64;79;95
95;40;40;64
64;82;95;53
48;64;64;64
78;63;36;64
80;55;44;32
40;78;79;47
40;40;64;76
79;79;59;48
48;48;68;72
79;87;63;36
40;52;68;78
79;79;71;36
40;40;64;72
76;87;42;32
36;40;56;64
79;63;47;32
32;32;48;52
63;56;79;63
63;47;32;44
70;79;63;32
32;32;56;64
71;47;28;32
48;63;75;79
47;32;32;48
64;77;63;63
34;40;56;70
87;63;32;48
36;64;79;79
63;32;40;48
48;86;63;32
32;32;52;64
68;79;39;32
40;48;48;52
63;79;79;38
36;32;52;64
68;56;79;79
63;40;68;93
79;55;40;64
78;95;52;48
52;95;63;48
68;95;61;55
48;76;92;95
52;64;72;95
63;48;68;87
95;46;52;76
95;48;64;72
95;63;40;64
93;79;40;64
74;87;38;40
64;87;63;44
64;79;63;42
32;52;79;79
41;40;68;79
63;32;64;70
79;63;36;52
79;55;32;52
76;63;24;32
36;64;79;39
32;56;79;63
30;44;64;79
79;32;48;64
87;46;36;64
79;55;32;48
64;79;47;36
64;87;38;36
48;79;63;36
48;79;63;36
36;64;87;79
32;64;79;79
52;48;68;93
79;40;52;76
95;40;52;76
95;58;52;68
95;63;48;68
84;95;44;52
64;93;79;40
40;64;94;95
95;48;44;64
80;95;79;55
32;48;84;95
95;44;70;72
86;87;79;40
44;40;68;76
79;63;40;40
48;44;68;78
63;47;24;44
64;77;63;63
39;32;56;79
79;34;32;40
36;56;79;63
55;32;48;64
87;47;39;36
64;64;78;79
63;36;48;74
79;63;55;38
36;32;52;70
79;63;32;52
76;87;63;36
38;44;48;64
64;87;47;36
48;44;64;79
79;79;47;44
52;64;76;92
95;36;52;72
90;95;95;63
60;64;72;92
111;54;44;48
64;80;79;44
44;48;64;68
79;87;63;32
48;52;72;87
79;32;52;68
87;63;36;32
32;64;79;79
79;32;40;40
40;64;79;47
39;36;32;32
36;40;71;63
63;20;44;64
79;55;24;40
64;79;63;39
16;44;75;79
63;20;40;44
44;48;76;79
55;38;24;32
32;52;62;77
79;20;48;64
78;63;47;32
64;64;87;79
32;64;72;87
87;36;52;64
86;79;40;52
84;87;63;44
64;82;95;40
64;64;87;95
71;36;64;72
95;95;63;48
40;64;95;95
95;40;64;72
68;95;79;48
64;68;92;95
87;52;48;68
90;95;52;40
40;64;68;86
95;71;40;48
48;76;95;55
52;40;64;70
87;63;36;48
72;87;79;32
48;64;79;63
47;36;64;74
87;24;40;64
87;26;36;52
70;79;71;24
32;40;64;78
63;16;48;71
78;87;63;39
34;32;52;76
87;47;32;32
32;56;79;63
63;32;48;48
56;79;63;36
32;32;48;48
56;48;71;79
63;32;52;52
52;48;64;79
87;63;32;64
72;87;71;32
64;64;87;79
46;52;72;93
79;40;64;72
93;95;63;40
68;72;92;95
62;40;64;84
95;40;64;76
92;87;79;52
48;72;68;76
94;95;62;48
64;64;78;86
95;61;52;40
48;48;68;79
79;32;44;64
79;79;32;32
32;40;66;79
79;39;32;40
44;40;70;79
79;36;40;54
78;63;28;36
68;79;63;24
32;44;74;63
63;32;52;74
79;47;32;56
79;63;32;48
52;78;79;28
32;40;64;79
47;32;56;76
79;63;63;47
42;40;52;68
91;79;40;32
36;64;92;79
63;44;68;76
87;95;63;44
52;64;90;95
71;40;72;94
111;79;52;48
64;76;95;103
95;48;64;68
80;95;95;58
56;48;64;72
87;95;59;36
64;95;79;52
48;48;72;90
95;55;36;48
48;78;79;46
40;36;64;64
79;79;63;36
64;76;95;79
46;48;64;84
95;55;36;32
36;40;64;79
87;63;32;32
32;64;79;47
36;20;32;32
32;48;79;63
63;16;36;44
40;52;64;79
79;45;32;52
76;87;32;40
64;79;79;63
32;64;78;79
55;40;64;78
95;63;40;64
92;63;44;64
68;84;92;79
63;40;64;76
95;79;44;64
64;84;95;95
79;48;48;64
80;95;79;46
40;64;72;95
95;79;48;40
48;52;72;90
95;63;40;40
48;64;87;71
63;36;64;64
76;87;59;36
64;78;79;55
32;64;78;79
55;40;64;68
87;55;32;52
79;63;38;36
64;70;79;47
32;32;52;68
79;63;32;36
64;79;79;32
48;64;79;63
36;32;64;79
63;32;64;79
87;32;32;32
40;68;79;55
47;32;64;64
70;79;87;87
79;32;48;32
40;40;64;78
95;47;32;32
40;64;87;71
63;40;52;86
79;46;48;72
95;42;40;48
76;91;79;36
48;64;82;95
60;44;64;78
95;40;64;78
87;95;63;48
68;68;95;79
48;64;80;95
79;44;48;40
44;48;72;95
87;32;48;48
56;72;87;43
36;32;64;64
71;79;63;32
36;36;68;71
79;63;43;36
44;52;79;79
47;36;64;78
87;63;32;40
64;79;79;47
32;52;68;79
63;32;36;64
79;28;32;52
79;79;38;32
52;52;79;63
32;48;68;63
47;32;48;68
79;55;32;48
64;68;79;79
47;40;64;84
95;46;36;32
36;48;64;76
95;55;36;32
40;36;56;64
87;63;63;38
32;64;87;55
47;44;64;64
80;87;63;36
48;64;79;95
63;40;52;64
87;79;55;40
64;64;86;87
79;40;64;76
92;87;44;64
86;95;87;44
64;76;88;87
61;44;64;78
79;63;40;70
95;63;40;64
95;47;44;64
87;63;40;64
79;32;40;64
79;63;32;40
56;79;28;44
56;79;28;20
40;68;63;24
32;68;63;24
24;48;79;55
32;64;79;32
32;68;79;32
44;78;63;38
32;52;79;87
42;44;72;87
63;36;52;76
87;63;40;64
87;63;36;64
76;87;63;44
52;84;87;47
48;80;95;71
52;64;86;111
79;48;64;84
95;52;64;76
95;79;48;64
86;95;61;64
72;95;63;40
72;95;71;48
68;95;87;63
44;64;90;95
58;52;76;95
52;48;68;92
63;40;64;87
53;36;68;87
55;40;64;87
44;44;64;79
47;36;64;79
47;32;64;79
39;32;64;79
38;44;68;79
47;24;52;56
70;79;43;32
48;64;79;79
39;32;64;78
95;63;32;32
36;40;68;87
95;38;32;40
44;64;79;38
40;32;48;56
66;87;38;36
64;79;79;44
48;64;78;79
46;40;64;68
87;63;40;64
94;63;55;52
64;76;87;87
71;48;64;76
95;40;44;68
95;36;48;64
86;87;52;40
48;48;78;95
79;36;52;64
86;79;46;36
32;56;87;63
63;32;64;76
95;36;32;48
64;87;39;32
32;32;52;68
87;22;32;32
36;52;79;55
55;32;32;64
79;55;32;48
76;63;28;24
52;68;63;34
32;40;64;79
63;32;36;52
79;38;32;44
64;63;38;32
56;64;79;34
32;36;56;79
63;32;36;32
40;36;68;79
79;32;32;32
32;36;64;76
93;20;36;48
56;52;48;68
87;55;24;32
32;56;79;39
47;36;32;52
78;63;34;36
52;72;87;79
32;64;80;95
95;44;40;48
56;68;87;55
52;32;48;40
48;52;79;71
63;32;48;56
64;79;63;24
36;48;64;70
79;63;32;48
64;63;24;32
52;70;79;55
55;32;32;40
44;64;79;79
63;32;32;24
32;36;58;68
79;34;20;32
56;71;79;63
55;32;32;32
40;52;76;79
63;32;48;48
64;79;79;47
40;32;48;44
70;79;63;32
36;48;76;79
55;36;64;74
95;63;32;32
40;64;87;79
36;36;48;48
52;68;79;79
63;44;64;76
95;47;32;64
76;95;63;55
48;48;78;90
103;55;48;52
52;72;87;46
48;36;68;76
95;55;40;40
48;68;79;94
79;36;40;64
72;95;36;32
44;52;70;79
79;34;48;52
64;64;68;79
63;47;39;32
32;52;79;79
63;34;32;40
36;52;79;47
43;16;32;48
60;76;63;31
39;20;52;70
79;20;36;52
79;63;20;20
32;64;79;63
63;24;32;32
32;44;64;79
79;63;32;32
36;64;79;63
55;32;40;52
64;78;79;40
36;40;64;68
87;87;55;36
64;79;95;87
71;44;64;72
103;79;56;48
40;64;95;95
95;44;64;80
90;111;79;44
64;64;80;86
95;95;95;71
71;64;52;64
64;76;95;63
48;48;64;52
64;70;93;63
63;40;44;64
72;87;63;32
44;56;68;79
79;40;32;40
64;79;63;43
20;52;76;79
79;32;32;32
32;36;66;71
79;24;36;32
44;44;71;63
47;24;32;32
36;52;71;63
63;39;32;32
36;48;71;63
63;24;32;44
48;52;68;71
79;34;36;48
64;79;79;47
40;40;32;48
64;70;79;63
63;34;52;64
79;95;61;40
64;64;86;95
87;46;52;64
80;95;87;63
48;68;92;111
103;66;48;64
52;64;72;86
95;71;44;48
44;64;82;95
95;44;40;44
48;48;48;68
87;79;44;32
44;64;79;79
79;32;32;48
48;64;79;63
63;32;24;32
32;52;79;55
63;32;24;32
32;44;74;71
79;28;48;52
64;63;44;16
40;44;58;71
63;36;16;32
44;68;79;63
39;32;48;56
77;79;55;38
36;40;56;70
87;55;32;32
32;64;87;63
32;44;64;64
64;79;63;32
36;72;79;47
46;40;64;64
84;63;32;32
44;64;87;79
71;36;40;48
56;72;95;55
47;36;72;94
95;40;72;78
103;79;44;48
48;64;86;95
95;36;48;48
64;72;91;79
87;44;48;64
86;79;62;40
64;72;87;95
79;40;48;64
84;95;44;36
48;48;78;87
95;55;32;36
32;56;79;79
79;32;64;68
91;79;47;32
56;68;79;79
45;40;68;79
95;39;48;76
79;32;48;64
87;47;32;52
79;47;32;56
79;63;36;48
79;63;32;64
72;79;32;52
79;63;32;64
76;79;32;48
78;79;36;48
68;87;46;40
64;87;55;48
64;87;71;40
44;78;87;36
48;76;87;71
46;64;86;95
63;52;76;95
63;48;68;86
95;71;48;80
95;48;64;80
95;79;48;64
92;79;50;64
68;95;79;44
64;90;87;44
48;76;79;44
36;64;87;79
38;52;68;87
63;36;64;76
79;47;36;56
79;55;36;64
78;79;32;44
64;79;47;36
40;71;79;79
63;32;56;68
87;63;32;32
36;24;56;68
79;63;32;32
32;48;78;63
63;32;32;44
52;44;66;79
87;55;32;32
36;32;56;68
79;63;39;32
24;48;79;79
79;32;48;52
64;72;79;47
46;32;64;70
86;36;48;64
79;79;55;36
44;32;64;76
95;62;55;40
36;64;84;95
95;44;64;68
72;95;95;79
79;70;40;48
48;72;86;87
87;48;48;64
72;93;79;40
40;40;64;68
79;79;32;44
70;79;63;55
32;52;74;79
95;79;38;36
40;32;64;66
87;47;32;36
48;68;63;26
24;24;48;60
79;47;16;32
52;79;63;39
24;40;64;78
63;24;44;56
70;55;34;32
32;68;79;47
32;40;76;87
79;34;64;68
78;86;95;63
58;40;48;64
64;87;87;55
48;40;64;70
82;63;32;40
64;92;95;95
87;40;68;76
95;95;48;48
52;64;64;80
90;95;95;79
64;48;76;88
111;63;48;64
72;92;95;87
79;40;64;68
82;87;79;44
48;48;72;82
95;63;47;40
64;64;86;95
95;36;64;72
95;63;42;32
40;32;64;68
87;36;40;52
56;56;74;63
55;32;48;52
60;79;20;32
52;71;79;63
28;52;74;79
79;63;42;46
44;32;64;64
70;79;79;63
47;36;48;64
72;79;79;55
36;48;64;68
86;79;46;36
40;48;76;79
95;46;40;36
44;52;48;64
79;87;45;36
36;52;87;63
79;40;44;48
64;64;52;64
86;63;55;32
36;64;72;79
95;44;40;36
40;36;44;60
78;79;44;32
32;48;74;79
95;71;63;42
32;64;68;86
95;63;36;32
40;40;56;70
74;79;79;63
63;36;48;56
76;87;63;32
36;32;48;64
78;63;39;28
24;40;68;79
87;47;32;32
32;32;44;64
79;31;32;32
40;52;66;63
63;22;40;40
52;66;63;20
24;24;48;60
79;20;44;52
78;55;16;24
36;20;52;64
79;55;24;24
32;24;52;70
79;47;32;36
36;44;70;79
79;39;40;56
72;79;63;32
52;64;78;92
95;44;48;64
84;79;53;46
36;64;84;95
95;59;52;64
68;84;95;63
71;40;64;64
88;87;55;40
64;84;94;95
95;44;64;72
86;87;71;44
64;86;95;79
71;40;44;64
64;48;70;86
95;63;36;32
36;64;79;79
79;38;48;40
48;64;79;47
44;24;36;48
56;68;79;63
44;32;32;40
52;79;63;32
32;32;48;60
78;47;32;36
64;79;79;55
40;32;48;64
76;63;47;32
32;64;87;63
63;44;48;64
72;78;94;79
79;47;64;64
68;72;82;95
95;79;78;52
52;52;64;68
88;79;54;44
48;48;64;64
87;95;61;40
48;64;94;87
95;63;44;44
48;48;64;76
95;55;40;48
52;48;48;64
79;63;32;32
32;48;74;79
79;39;32;40
48;52;79;47
36;16;48;64
76;55;20;32
48;54;71;79
79;30;36;48
70;63;24;20
32;32;52;71
79;47;24;32
40;60;63;25
24;32;40;48
60;77;79;39
44;24;32;32
44;68;79;63
55;32;44;48
66;78;79;55
47;24;64;64
72;87;87;63
63;44;52;64
76;95;95;63
54;40;68;76
95;95;79;48
64;78;92;95
111;66;48;64
80;95;103;95
71;64;72;84
106;111;79;64
54;68;100;103
111;78;68;52
64;80;100;95
95;62;48;48
48;52;64;68
86;79;79;36
40;64;86;95
87;36;64;76
93;79;79;36
64;84;95;79
55;48;64;68
95;63;36;32
36;70;79;63
63;47;32;32
36;32;44;56
63;28;32;56
63;20;40;60
71;47;24;40
70;63;20;36
48;79;55;24
48;76;63;32
48;78;63;32
32;64;79;47
32;64;79;79
55;40;64;79
87;55;36;52
86;79;36;48
68;95;53;40
68;95;63;48
64;95;79;44
48;76;95;63
44;76;95;79
58;64;84;111
79;48;68;92
95;48;64;80
95;79;44;64
82;95;60;52
84;95;46;40
76;87;55;48
76;95;63;40
48;78;87;32
48;84;63;36
32;64;87;32
64;86;63;32
32;52;76;79
32;48;74;63
24;52;72;63
28;48;71;47
32;64;79;32
32;68;55;20
36;70;63;28
32;64;79;79
63;48;68;87
95;46;64;68
90;95;63;40
48;79;95;87
79;60;48;64
76;95;95;79
58;64;92;95
103;79;52;56
64;64;76;92
111;79;79;63
64;64;76;86
103;95;68;56
64;72;92;103
111;70;64;68
76;86;103;71
64;48;64;64
64;80;95;79
63;46;48;48
64;72;87;63
63;44;72;82
95;63;36;44
64;79;95;79
55;40;48;64
84;79;63;44
40;48;79;79
32;48;70;76
87;63;32;36
64;87;63;38
32;48;76;79
79;45;48;56
64;76;63;20
40;79;47;20
32;32;64;79
79;32;40;56
70;79;63;32
48;70;87;79
63;48;80;95
95;71;40;52
64;76;95;79
71;44;68;76
87;95;79;44
52;64;86;95
95;71;44;64
76;103;95;71
58;64;96;95
95;66;64;64
76;92;111;60
56;64;80;100
103;58;64;72
94;95;66;52
52;64;84;95
95;71;48;64
64;76;95;87
78;55;64;64
68;90;95;79
62;40;64;68
86;87;63;32
64;78;90;90
95;79;40;40
64;87;90;95
87;61;48;64
72;87;63;63
60;36;64;76
95;63;40;48
68;79;47;32
48;70;87;63
60;32;52;64
79;79;87;79
34;48;76;95
95;79;48;48
52;64;78;95
95;55;44;36
48;64;76;86
95;63;40;48
68;95;63;36
48;64;76;84
95;95;60;48
64;72;86;95
103;61;48;64
76;95;95;95
95;71;64;72
88;95;87;64
64;76;103;70
48;80;100;111
95;52;72;78
102;95;48;48
64;95;95;55
48;48;80;84
95;79;47;40
64;95;79;63
63;40;52;64
76;95;79;63
52;40;64;70
87;79;44;36
44;48;76;79
79;63;32;32
32;32;64;79
87;55;32;32
48;48;66;79
79;47;32;32
32;56;74;79
79;39;40;44
56;76;87;71
79;47;48;64
76;79;79;32
48;80;84;95
95;44;48;64
72;95;87;63
54;64;86;95
95;71;52;64
76;103;71;40
52;64;94;95
87;52;64;76
92;95;79;60
56;68;95;95
79;71;64;68
84;95;48;64
76;95;95;87
79;48;48;64
76;95;54;40
48;72;64;76
92;63;32;40
48;64;87;63
63;47;32;32
40;48;70;79
79;45;32;40
56;78;79;47
38;32;40;48
64;79;63;20
32;52;76;79
55;32;36;48
64;79;63;55
47;32;52;64
78;63;32;32
64;79;79;45
32;64;79;95
79;47;48;64
76;95;71;40
44;64;92;79
79;55;68;72
86;95;95;54
48;68;80;94
95;62;48;64
72;95;95;79
68;48;68;72
86;95;58;52
54;48;64;72
90;95;71;44
48;68;95;79
48;40;64;64
84;95;95;44
48;64;76;84
91;95;71;36
64;76;91;95
63;48;64;64
72;95;79;55
46;48;68;78
94;79;63;63
52;40;64;68
76;95;63;47
40;48;64;79
87;79;32;32
64;79;79;32
36;56;74;79
79;32;36;52
70;79;63;44
44;36;40;52
68;79;47;32
32;32;32;40
60;79;63;61
53;36;32;32
48;72;79;79
63;36;76;94
95;95;55;52
54;48;64;78
95;71;44;48
64;80;92;95
87;71;64;64
64;84;103;79
40;76;95;63
36;64;94;95
95;71;52;52
52;52;48;64
76;95;79;55
46;44;44;48
70;95;63;46
32;52;79;87
79;63;36;40
48;48;72;79
79;55;32;40
44;64;76;79
79;47;32;32
32;32;68;79
79;47;32;40
48;64;79;30
32;40;40;52
68;63;28;20
44;64;70;79
63;36;36;48
56;70;79;63
32;52;79;63
44;72;87;63
40;70;87;47
40;68;95;63
36;64;92;63
40;68;95;55
36;64;87;79
40;64;87;87
79;48;68;88
87;44;64;84
95;54;48;64
78;95;46;52
68;95;63;44
64;80;95;63
44;68;84;95
55;64;92;95
63;48;76;94
79;40;64;84
95;44;48;68
84;79;36;48
76;87;38;48
76;79;44;36
36;68;79;36
36;64;79;63
39;40;64;79
47;32;64;79
79;32;40;52
79;55;32;52
68;79;47;32
48;78;79;32
40;72;79;32
36;70;79;47
32;64;79;47
32;64;79;63
32;52;70;87
46;48;72;87
55;36;64;76
87;44;40;64
87;63;36;64
78;87;63;36
64;86;87;44
44;64;90;95
87;36;76;95
95;79;48;54
48;48;68;76
93;79;60;44
48;64;86;95
79;48;64;64
76;95;87;44
64;76;87;79
58;64;86;95
95;79;64;68
84;79;40;52
68;95;79;79
69;46;48;64
76;95;55;63
50;40;64;64
68;76;79;55
47;32;64;78
87;79;39;32
40;32;40;48
60;63;47;47
32;32;40;52
68;63;32;24
24;16;36;48
56;63;63;39
38;32;64;79
79;71;34;32
32;32;52;70
79;55;32;32
40;44;56;74
79;63;55;36
32;32;44;66
79;79;63;42
44;40;72;94
95;79;44;40
48;68;76;95
95;79;48;52
64;70;95;71
52;48;64;80
95;79;44;52
68;86;95;71
60;40;68;76
90;87;46;44
64;68;95;79
55;40;64;72
87;63;40;52
72;87;40;32
40;40;56;76
79;63;24;32
32;36;52;74
79;63;36;48
64;63;24;40
52;78;79;63
47;34;48;56
72;79;79;63
34;44;64;71
87;63;32;32
40;56;76;63
63;47;32;40
56;64;79;79
71;55;40;40
64;87;79;44
40;52;64;76
95;63;40;40
64;95;79;63
55;40;48;64
76;95;95;79
63;64;84;103
111;79;64;68
84;102;87;48
64;76;95;111
95;56;72;80
94;111;87;71
64;64;64;76
92;95;95;95
87;64;84;96
103;79;64;64
76;111;44;64
72;95;95;87
79;40;52;64
72;95;95;79
52;64;76;95
95;79;54;40
44;64;84;95
95;61;40;52
64;72;87;63
59;40;44;48
64;87;63;24
32;44;64;54
70;63;20;32
48;60;68;76
79;45;32;40
48;60;77;79
79;63;36;32
56;79;92;87
79;55;48;64
64;86;95;79
79;52;48;64
76;95;79;44
64;44;36;48
64;93;87;79
71;52;64;80
94;95;44;44
68;95;95;44
64;94;95;87
64;44;72;76
88;103;79;52
64;48;68;84
95;79;52;40
48;40;68;84
95;63;36;40
44;64;40;52
64;79;87;87
79;51;40;48
64;87;95;79
63;36;68;87
95;79;63;40
44;48;76;95
95;63;40;40
64;68;87;63
47;32;52;64
76;79;79;24
48;68;74;79
79;63;63;32
40;68;87;79
79;54;36;52
68;95;87;87
71;44;64;80
90;95;63;58
63;48;64;64
76;95;95;79
71;54;64;64
76;103;95;66
44;72;80;95
103;95;48;64
72;80;95;95
50;64;95;103
95;48;72;84
84;103;52;64
80;80;103;87
62;48;72;80
95;79;48;64
72;95;79;48
48;64;84;95
95;87;48;44
48;68;90;95
95;79;52;58
52;48;64;76
90;87;36;36
52;68;87;63
47;36;64;76
87;63;32;36
56;79;79;79
71;54;40;64
68;95;79;54
32;64;76;87
95;63;40;48
64;68;87;55
32;64;79;62
54;48;76;94
95;71;48;64
64;78;95;79
40;64;82;95
87;36;68;86
94;95;52;55
52;62;44;64
68;95;95;79
79;48;84;110
95;87;64;64
48;86;109;79
48;64;102;111
111;95;68;64
72;111;87;64
64;64;92;103
111;95;64;64
72;103;111;79
64;72;88;96
111;95;79;64
72;94;95;79
79;52;72;88
94;111;95;79
75;52;68;76
88;95;48;40
48;48;72;87
79;55;32;48
40;74;79;63
36;36;48;56
78;47;32;40
56;79;63;43
28;32;52;64
71;63;47;20
44;76;79;63
42;32;70;79
86;79;63;36
48;64;87;95
63;48;64;68
82;95;55;36
48;64;78;95
87;63;40;48
64;92;40;40
64;87;95;87
55;64;78;95
103;95;62;52
64;64;86;103
95;111;95;76
77;64;88;100
111;87;64;64
80;111;111;95
69;64;84;80
84;94;111;79
68;52;64;64
68;92;95;59
40;48;68;76
95;63;36;36
64;86;95;95
95;79;48;64
72;95;95;77
58;64;94;95
79;58;48;48
64;68;91;79
79;40;48;64
82;79;32;52
70;79;38;40
64;79;55;32
40;70;79;47
32;52;76;63
32;48;70;79
79;32;64;78
79;32;64;76
87;46;52;72
87;55;44;64
86;79;36;48
68;95;79;40
64;90;87;44
48;76;95;79
54;64;80;95
63;64;84;95
95;48;72;92
95;48;64;84
95;87;48;64
76;95;79;48
68;95;71;48
68;95;87;44
64;84;95;54
40;76;95;71
40;68;92;63
36;64;84;93
79;36;64;78
87;44;48;64
79;79;32;48
74;79;41;32
64;79;36;32
52;79;63;20
40;74;79;38
32;64;79;32
32;64;79;44
32;64;79;47
24;52;70;63
32;56;79;63
32;64;76;79
32;48;76;79
63;36;64;70
87;55;44;64
86;71;36;64
79;87;40;36
64;95;79;40
52;82;95;63
48;68;84;95
95;79;71;56
64;64;80;94
95;95;70;62
56;64;92;103
107;95;64;64
72;80;103;95
79;64;64;72
76;95;95;63
48;48;64;64
78;95;55;36
48;76;80;95
95;36;48;64
72;79;79;63
36;48;48;64
68;87;47;36
36;48;70;79
71;63;32;32
52;79;87;63
40;32;48;48
62;74;79;47
32;32;48;60
79;63;47;20
32;40;48;68
79;47;24;36
52;79;47;63
63;47;36;64
70;87;71;63
55;48;72;92
95;79;44;48
64;72;68;84
87;95;71;71
60;67;44;64
72;95;79;62
56;52;76;95
95;95;56;44
64;68;95;95
71;52;64;84
95;95;64;64
